dI/dz, Integral_trapz, Conc.(mol/cm^3), D(cm^2/sec), Time(sec), Position(element), depth(μm), crystal
-2.4939552058227837e-08,6.967700893871869e-16,-2.7938356220689e-08,0.000762971252555447,7.0,1.0,0.272,1.0
-1.8514344896390857e-08,6.741223073170153e-16,-3.641081070324163e-08,0.0007629333780925514,7.0,2.0,0.544,1.0
-1.2330367867228466e-08,6.517341242664308e-16,-5.2856016242516464e-08,0.0007627123099878983,7.0,3.0,0.8160000000000001,1.0
-6.387620970658938e-09,6.296268324567323e-16,-9.856984867274941e-08,0.0007623161899296148,7.0,4.0,1.088,1.0
-6.861042067564001e-10,6.078203325247599e-16,-8.859008974719277e-07,0.0007617531596058297,7.0,5.0,1.36,1.0
4.774182424549479e-09,5.863331335228911e-16,1.2281330736502412e-07,0.0007610313607046704,7.0,6.0,1.6320000000000001,1.0
9.99323892322258e-09,5.651823529190535e-16,5.655647355790386e-08,0.0007601589349142647,7.0,7.0,1.9040000000000001,1.0
1.4971065289251504e-08,5.443837165967147e-16,3.6362390122468825e-08,0.0007591440239227412,7.0,8.0,2.176,1.0
1.9707661522681865e-08,5.23951558854888e-16,2.6586186202348955e-08,0.0007579947694182272,7.0,9.0,2.4480000000000004,1.0
2.4203027623445237e-08,5.038988224081206e-16,2.0819660674187667e-08,0.0007567193130888512,7.0,10.0,2.72,1.0
2.845716359161575e-08,4.842370583865152e-16,1.7016350095031413e-08,0.0007553257966227409,7.0,11.0,2.992,1.0
3.2470069427134473e-08,4.649764263357114e-16,1.432015497777598e-08,0.0007538223617080242,7.0,12.0,3.2640000000000002,1.0
3.624174513004514e-08,4.46125694216888e-16,1.2309718878494092e-08,0.0007522171500328292,7.0,13.0,3.5360000000000005,1.0
3.9772190700294516e-08,4.276922384067751e-16,1.0753549927125537e-08,0.0007505183032852843,7.0,14.0,3.8080000000000003,1.0
4.306140613794344e-08,4.0968204369763873e-16,9.513903061717452e-09,0.0007487339631535169,7.0,15.0,4.08,1.0
4.6109391442970976e-08,3.92099703297291e-16,8.50368419592455e-09,0.0007468722713256549,7.0,16.0,4.352,1.0
4.891614661534104e-08,3.749484188290867e-16,7.665125828032736e-09,0.0007449413694898268,7.0,17.0,4.6240000000000006,1.0
5.148167165510303e-08,3.582300003319209e-16,6.958398762414934e-09,0.0007429493993341602,7.0,18.0,4.896000000000001,1.0
5.380596656224175e-08,3.419448662602356e-16,6.3551477300325065e-09,0.0007409045025467829,7.0,19.0,5.168,1.0
5.588903133673819e-08,3.2609204348401717e-16,5.8346340182436344e-09,0.0007388148208158232,7.0,20.0,5.44,1.0
5.773086597860756e-08,3.1066916728878795e-16,5.3813356516063324e-09,0.0007366884958294091,7.0,21.0,5.712,1.0
5.9331470487842255e-08,2.956724813756181e-16,4.9834005283284695e-09,0.0007345336692756687,7.0,22.0,5.984,1.0
6.069084486448218e-08,2.8109683786111967e-16,4.631618467147499e-09,0.0007323584828427294,7.0,23.0,6.256,1.0
6.180898910845514e-08,2.669356972774507e-16,4.318719673752686e-09,0.0007301710782187196,7.0,24.0,6.5280000000000005,1.0
6.26859032198143e-08,2.531811285723037e-16,4.038884590758772e-09,0.0007279795970917673,7.0,25.0,6.800000000000001,1.0
6.33215871985464e-08,2.3982380910892395e-16,3.787394152912663e-09,0.0007257921811500004,7.0,26.0,7.072000000000001,1.0
6.371604104465714e-08,2.2685302466609345e-16,3.5603753928637415e-09,0.0007236169720815466,7.0,27.0,7.344,1.0
6.38692647581313e-08,2.1425666943813955e-16,3.3546130560531026e-09,0.0007214621115745342,7.0,28.0,7.6160000000000005,1.0
6.378125833896508e-08,2.0202124603493278e-16,3.1674076569843165e-09,0.0007193357413170914,7.0,29.0,7.888000000000001,1.0
6.345202178720789e-08,1.9013186548188503e-16,2.996466623546047e-09,0.0007172460029973452,7.0,30.0,8.16,1.0
6.288155510278372e-08,1.7857224721995354e-16,2.8398191954392086e-09,0.0007152010383034247,7.0,31.0,8.432,1.0
6.206985828574578e-08,1.6732471910563567e-16,2.695748366869744e-09,0.0007132089889234573,7.0,32.0,8.704,1.0
6.101693133607886e-08,1.5637021741097364e-16,2.56273486697803e-09,0.0007112779965455712,7.0,33.0,8.976,1.0
5.972277425378678e-08,1.4568828682355157e-16,2.439409231132863e-09,0.0007094162028578942,7.0,34.0,9.248000000000001,1.0
5.8187387038869526e-08,1.3525708044649713e-16,2.324508580461683e-09,0.0007076317495485542,7.0,35.0,9.520000000000001,1.0
5.641076969130999e-08,1.2505335979848114e-16,2.2168348434668754e-09,0.0007059327783056794,7.0,36.0,9.792000000000002,1.0
5.439292221113858e-08,1.1505249481371667e-16,2.115210768914273e-09,0.0007043274308173974,7.0,37.0,10.064000000000002,1.0
5.21338445983268e-08,1.052284638419609e-16,2.018429000445099e-09,0.0007028238487718369,7.0,38.0,10.336,1.0
4.9633536852891746e-08,9.555385364851214e-17,1.9251872767343393e-09,0.000701430173857125,7.0,39.0,10.608,1.0
1.2484018432993045e-07,1.1672233263606684e-14,9.34974049121799e-08,0.0019288599088146039,127.0,1.0,0.272,1.0
1.4878851050429583e-07,1.1360527052167218e-14,7.635352362667289e-08,0.0019220554305423659,127.0,2.0,0.544,1.0
1.7157634106862014e-07,1.1050726565742153e-14,6.440705342540514e-08,0.0019143861995734141,127.0,3.0,0.8160000000000001,1.0
1.9320367602300415e-07,1.0743009581115425e-14,5.560458166353051e-08,0.0019058974420521505,127.0,4.0,1.088,1.0
2.1367051536733764e-07,1.0437543931499249e-14,4.8848779690334216e-08,0.0018966343841229794,127.0,5.0,1.36,1.0
2.3297685910174033e-07,1.0134487506534129e-14,4.3499974828437475e-08,0.0018866422519303021,127.0,6.0,1.6320000000000001,1.0
2.5112270722612864e-07,9.833988252288822e-15,3.916009173727808e-08,0.0018759662716185226,127.0,7.0,1.9040000000000001,1.0
2.681080597405215e-07,9.536184171260389e-15,3.5568435281243064e-08,0.001864651669332044,127.0,8.0,2.176,1.0
2.839329166449626e-07,9.24120332237415e-15,3.254713624461372e-08,0.0018527436712152676,127.0,9.0,2.4480000000000004,1.0
2.9859727793936654e-07,8.949163820983706e-15,2.997068118886513e-08,0.0018402875034125984,127.0,10.0,2.72,1.0
3.1210114362381686e-07,8.660173838870941e-15,2.774797214235543e-08,0.0018273283920684379,127.0,11.0,2.992,1.0
3.244445136982547e-07,8.374331604246015e-15,2.5811290530973348e-08,0.00181391156332719,127.0,12.0,3.2640000000000002,1.0
3.35627388162756e-07,8.091725401747368e-15,2.4109252364778536e-08,0.0018000822433332556,127.0,13.0,3.5360000000000005,1.0
3.456497670171631e-07,7.812433572441702e-15,2.2602166464222666e-08,0.0017858856582310416,127.0,14.0,3.8080000000000003,1.0
3.545116502616717e-07,7.53652451382402e-15,2.1258890951146938e-08,0.0017713670341649476,127.0,15.0,4.08,1.0
3.622130378961905e-07,7.264056679817583e-15,2.0054652703858344e-08,0.0017565715972793767,127.0,16.0,4.352,1.0
3.687539299206836e-07,6.995078580773945e-15,1.8969502460024054e-08,0.001741544573718733,127.0,17.0,4.6240000000000006,1.0
3.7413432633518883e-07,6.7296287834729245e-15,1.798719954245475e-08,0.0017263311896274195,127.0,18.0,4.896000000000001,1.0
3.7835422713975374e-07,6.467735911122626e-15,1.7094393156425926e-08,0.0017109766711498372,127.0,19.0,5.168,1.0
3.814136323342758e-07,6.209418643359423e-15,1.6280012346064778e-08,0.0016955262444303914,127.0,20.0,5.44,1.0
3.8331254191884415e-07,5.954685716247981e-15,1.5534805322150718e-08,0.0016800251356134833,127.0,21.0,5.712,1.0
3.8405095589337155e-07,5.703535922281225e-15,1.485098743997076e-08,0.0016645185708435179,127.0,22.0,5.984,1.0
3.8362887425799284e-07,5.455958110380378e-15,1.4221969399287738e-08,0.0016490517762648954,127.0,23.0,6.256,1.0
3.820462970125541e-07,5.211931185894918e-15,1.3642145537465196e-08,0.001633669978022021,127.0,24.0,6.5280000000000005,1.0
3.7930322415715035e-07,4.971424110602618e-15,1.3106727794496392e-08,0.0016184184022592968,127.0,25.0,6.800000000000001,1.0
3.753996556917854e-07,4.734395902709522e-15,1.2611614930719612e-08,0.0016033422751211247,127.0,26.0,7.072000000000001,1.0
3.7033559161638515e-07,4.5007956368499515e-15,1.2153289445406947e-08,0.0015884868227519099,127.0,27.0,7.344,1.0
3.6411103193104456e-07,4.270562444086507e-15,1.1728736757680188e-08,0.0015738972712960526,127.0,28.0,7.6160000000000005,1.0
3.567259766356649e-07,4.043625511910061e-15,1.1335382833754041e-08,0.0015596188468979583,127.0,29.0,7.888000000000001,1.0
3.4818042573036384e-07,3.8199040842397744e-15,1.0971047772794574e-08,0.0015456967757020272,127.0,30.0,8.16,1.0
3.3847437921499903e-07,3.599307461423075e-15,1.0633914063955765e-08,0.001532176283852665,127.0,31.0,8.432,1.0
3.27607837089692e-07,3.3817350002356755e-15,1.0322509468263512e-08,0.001519102597494273,127.0,32.0,8.704,1.0
3.1558079935437054e-07,3.1670761138815602e-15,1.0035705975651585e-08,0.001506520942771255,127.0,33.0,8.976,1.0
3.023932660090955e-07,2.955210271992997e-15,9.772738364828894e-09,0.0014944765458280128,127.0,34.0,9.248000000000001,1.0
2.880452370538098e-07,2.7460070006305262e-15,9.533249112942437e-09,0.0014830146328089497,127.0,35.0,9.520000000000001,1.0
2.7253671248852113e-07,2.5393258822829675e-15,9.317371810558991e-09,0.0014721804298584698,127.0,36.0,9.792000000000002,1.0
2.5586769231328077e-07,2.335016555867421e-15,9.125874919012674e-09,0.0014620191631209744,127.0,37.0,10.064000000000002,1.0
2.3803817652802023e-07,2.1329187167292586e-15,8.96040604847343e-09,0.0014525760587408671,127.0,38.0,10.336,1.0
2.190481651327795e-07,1.9328621166421343e-15,8.823913751893332e-09,0.0014438963428625514,127.0,39.0,10.608,1.0
1.27618712594059e-06,2.2794479205242736e-14,1.786139253555194e-08,0.004754383906582267,247.0,1.0,0.272,1.0
1.330947400019951e-06,2.204324381057944e-14,1.6562069853586254e-08,0.004699981968095715,247.0,2.0,0.544,1.0
1.382099145006128e-06,2.1304854371102446e-14,1.5414852435212227e-08,0.004644092461679596,247.0,3.0,0.8160000000000001,1.0
1.4296423608992421e-06,2.0579467763059477e-14,1.439483630725312e-08,0.00458683610699289,247.0,4.0,1.088,1.0
1.4735770476990813e-06,1.986722062038512e-14,1.3482308679689884e-08,0.004528333623694583,247.0,5.0,1.36,1.0
1.5139032054058045e-06,1.916822933470079e-14,1.2661462943109835e-08,0.004468705731443661,247.0,6.0,1.6320000000000001,1.0
1.5506208340194576e-06,1.8482590055314783e-14,1.1919477444015083e-08,0.004408073149899102,247.0,7.0,1.9040000000000001,1.0
1.5837299335398126e-06,1.7810378689222226e-14,1.1245843317120392e-08,0.004346556598719895,247.0,8.0,2.176,1.0
1.613230503967196e-06,1.715165090110511e-14,1.0631866220559562e-08,0.00428427679756502,247.0,9.0,2.4480000000000004,1.0
1.6391225453012437e-06,1.6506442113332264e-14,1.0070291669558272e-08,0.004221354466093464,247.0,10.0,2.72,1.0
1.6614060575423198e-06,1.5874767505959408e-14,9.555019637669186e-09,0.004157910323964207,247.0,11.0,2.992,1.0
1.680081040690075e-06,1.5256622016729072e-14,9.080884580700096e-09,0.004094065090836236,247.0,12.0,3.2640000000000002,1.0
1.695147494744821e-06,1.4651980341070648e-14,8.643484054628699e-09,0.004029939486368533,247.0,13.0,3.5360000000000005,1.0
1.7066054197062533e-06,1.40607969321004e-14,8.239043876071009e-09,0.003965654230220083,247.0,14.0,3.8080000000000003,1.0
1.7144548155746692e-06,1.3483006000621426e-14,7.864311079030712e-09,0.0039013300420498685,247.0,15.0,4.08,1.0
1.7186956823499537e-06,1.2918521515123688e-14,7.516468242627068e-09,0.0038370876415168716,247.0,16.0,4.352,1.0
1.719328020031986e-06,1.236723720178399e-14,7.193064416849271e-09,0.0037730477482800797,247.0,17.0,4.6240000000000006,1.0
1.7163518286208643e-06,1.1829026544465994e-14,6.8919590652756444e-09,0.0037093310819984755,247.0,18.0,4.896000000000001,1.0
1.7097671081167104e-06,1.130374278472023e-14,6.6112763142175415e-09,0.0036460583623310404,247.0,19.0,5.168,1.0
1.6995738585193193e-06,1.0791218921784052e-14,6.349367441545281e-09,0.0035833503089367585,247.0,20.0,5.44,1.0
1.685772079828767e-06,1.0291267712581682e-14,6.104780020812198e-09,0.003521327641474617,247.0,21.0,5.712,1.0
1.6683617720450685e-06,9.803681671724194e-15,5.876232503042128e-09,0.0034601110796035955,247.0,22.0,5.984,1.0
1.6473429351682924e-06,9.328233071509518e-15,5.662593302442243e-09,0.0033998213429826786,247.0,23.0,6.256,1.0
1.622715569198233e-06,8.864673941922433e-15,5.46286367752198e-09,0.0033405791512708537,247.0,24.0,6.5280000000000005,1.0
1.5944796741351112e-06,8.412736070634565e-15,5.276163884119664e-09,0.0032825052241271,247.0,25.0,6.800000000000001,1.0
1.5626352499788738e-06,7.972131003004405e-15,5.101722236914971e-09,0.003225720281210402,247.0,26.0,7.072000000000001,1.0
1.5271822967293836e-06,7.542550042077287e-15,4.938866864964599e-09,0.0031703450421797447,247.0,27.0,7.344,1.0
1.4881208143868235e-06,7.1236642485854e-15,4.787020099252283e-09,0.003116500226694111,247.0,28.0,7.6160000000000005,1.0
1.4454508029510374e-06,6.7151244409477976e-15,4.645695603916907e-09,0.003064306554412486,247.0,29.0,7.888000000000001,1.0
1.3991722624222193e-06,6.316561195270357e-15,4.514498582422761e-09,0.00301388474499385,247.0,30.0,8.16,1.0
1.3492851928001103e-06,5.927584845345835e-15,4.393129693393127e-09,0.002965355518097191,247.0,31.0,8.432,1.0
1.2957895940849162e-06,5.547785482653833e-15,4.28139376020508e-09,0.0029188395933814905,247.0,32.0,8.704,1.0
1.2386854662765682e-06,5.176732956360807e-15,4.1792150608837195e-09,0.0028744576905057316,247.0,33.0,8.976,1.0
1.1779728093750782e-06,4.813976873320061e-15,4.0866621326123015e-09,0.002832330529128899,247.0,34.0,9.248000000000001,1.0
1.1136516233804304e-06,4.4590465980717506e-15,4.003986978025095e-09,0.0027925788289099767,247.0,35.0,9.520000000000001,1.0
1.0457219082926252e-06,4.1114512528428906e-15,3.931687019501919e-09,0.0027553233095079462,247.0,36.0,9.792000000000002,1.0
9.74183664111651e-07,3.770679717547344e-15,3.870604544560693e-09,0.002720684690581795,247.0,37.0,10.064000000000002,1.0
8.990368908375611e-07,3.4362006297858317e-15,3.822090800506081e-09,0.0026887836917905035,247.0,38.0,10.336,1.0
8.202815884702756e-07,3.107462384845921e-15,3.788287374145453e-09,0.0026597410327930575,247.0,39.0,10.608,1.0
4.5218030927209956e-06,2.440718414588909e-14,5.3976662949297204e-09,0.008345311482950426,367.0,1.0,0.272,1.0
4.56098183447955e-06,2.3457870468475342e-14,5.143162441722836e-09,0.008189967074596946,367.0,2.0,0.544,1.0
4.5939585197192525e-06,2.2535427258506763e-14,4.905448571591359e-09,0.00803459373191301,367.0,3.0,0.8160000000000001,1.0
4.620733148440589e-06,2.163945753917117e-14,4.683122102923014e-09,0.007879355949858951,367.0,4.0,1.088,1.0
4.641305720642968e-06,2.0769552596047347e-14,4.474937409029394e-09,0.007724418223395124,367.0,5.0,1.36,1.0
4.65567623632689e-06,1.9925291977105072e-14,4.279784711323739e-09,0.007569945047481863,367.0,6.0,1.6320000000000001,1.0
4.66384469549225e-06,1.9106243492705038e-14,4.096672325125194e-09,0.007416100917079514,367.0,7.0,1.9040000000000001,1.0
4.665811098138681e-06,1.8311963215598967e-14,3.924711659009107e-09,0.0072630503271484265,367.0,8.0,2.176,1.0
4.661575444266808e-06,1.754199548092951e-14,3.763104489170954e-09,0.0071109577726489355,367.0,9.0,2.4480000000000004,1.0
4.651137733876007e-06,1.6795872886230348e-14,3.611132124490662e-09,0.006959987748541392,367.0,10.0,2.72,1.0
4.6344979669667796e-06,1.6073116291426062e-14,3.4681461521809046e-09,0.0068103047497861365,367.0,11.0,2.992,1.0
4.6116561435387156e-06,1.5373234818832246e-14,3.333560512826033e-09,0.0066620732713435155,367.0,12.0,3.2640000000000002,1.0
4.582612263592165e-06,1.469572585315549e-14,3.206844700763746e-09,0.006515457808173869,367.0,13.0,3.5360000000000005,1.0
4.547366327126762e-06,1.4040075041493301e-14,3.0875179238890293e-09,0.006370622855237548,367.0,14.0,3.8080000000000003,1.0
4.505918334142918e-06,1.3405756293334215e-14,2.9751440881105445e-09,0.006227732907494889,367.0,15.0,4.08,1.0
4.4582682846404965e-06,1.2792231780557675e-14,2.8693274975463276e-09,0.006086952459906234,367.0,16.0,4.352,1.0
4.404416178619132e-06,1.2198951937434172e-14,2.7697091833993707e-09,0.0059484460074319375,367.0,17.0,4.6240000000000006,1.0
4.344362016079324e-06,1.162535546062512e-14,2.6759637934401946e-09,0.005812378045032335,367.0,18.0,4.896000000000001,1.0
4.278105797020909e-06,1.1070869309182895e-14,2.587796991110453e-09,0.0056789130676677705,367.0,19.0,5.168,1.0
4.205647521443779e-06,1.0534908704550906e-14,2.5049433293768567e-09,0.00554821557029859,367.0,20.0,5.44,1.0
4.126987189347949e-06,1.0016877130563471e-14,2.427164580597137e-09,0.005420450047885139,367.0,21.0,5.712,1.0
4.042124800733495e-06,9.516166333445919e-15,2.354248520906403e-09,0.005295780995387761,367.0,22.0,5.984,1.0
3.951060355600585e-06,9.032156321814533e-15,2.2860081874000105e-09,0.005174372907766793,367.0,23.0,6.256,1.0
3.853793853948731e-06,8.564215366676577e-15,2.222281650561403e-09,0.005056390279982589,367.0,24.0,6.5280000000000005,1.0
3.7503252957783905e-06,8.111700001430291e-15,2.162932375642547e-09,0.004941997606995489,367.0,25.0,6.800000000000001,1.0
3.640654681089457e-06,7.673955021864873e-15,2.1078502890497876e-09,0.004831359383765834,367.0,26.0,7.072000000000001,1.0
3.524782009881823e-06,7.250313486160516e-15,2.056953725318066e-09,0.004724640105253968,367.0,27.0,7.344,1.0
3.40270728215552e-06,6.8400967148883595e-15,2.010192516634975e-09,0.004622004266420238,367.0,28.0,7.6160000000000005,1.0
3.27443049791054e-06,6.4426142910105324e-15,1.9675526156752007e-09,0.004523616362224989,367.0,29.0,7.888000000000001,1.0
3.1399516571470727e-06,6.057164059880142e-15,1.9290628395800265e-09,0.0044296408876285595,367.0,30.0,8.16,1.0
2.999270759864792e-06,5.683032129241248e-15,1.8948046322758273e-09,0.004340242337591297,367.0,31.0,8.432,1.0
2.85238780606391e-06,5.319492869228904e-15,1.8649262410672767e-09,0.004255585207073547,367.0,32.0,8.704,1.0
2.6993027957444422e-06,4.965808912369118e-15,1.8396635309672972e-09,0.004175833991035649,367.0,33.0,8.976,1.0
2.5400157289062597e-06,4.621231153578875e-15,1.8193710775046241e-09,0.00410115318443795,367.0,34.0,9.248000000000001,1.0
2.374526605549514e-06,4.2849987501661485e-15,1.8045696940820389e-09,0.004031707282240791,367.0,35.0,9.520000000000001,1.0
2.202835425674038e-06,3.956339121829867e-15,1.7960211987326656e-09,0.0039676607794045205,367.0,36.0,9.792000000000002,1.0
2.0249421892799684e-06,3.634467950659939e-15,1.7948502282686343e-09,0.003909178170889477,367.0,37.0,10.064000000000002,1.0
1.8408468963672602e-06,3.3185891811372384e-15,1.8027513247767452e-09,0.0038564239516560082,367.0,38.0,10.336,1.0
1.6505495469358444e-06,3.0078950201336243e-15,1.8223597260182937e-09,0.0038095626166644568,367.0,39.0,10.608,1.0
1.2561158389754826e-05,9.256210093287803e-14,7.368914399516993e-09,0.019681843292874708,487.0,1.0,0.272,1.0
1.245788468636789e-05,8.955755508466205e-14,7.188825176930792e-09,0.019264285660144268,487.0,2.0,0.544,1.0
1.2346336307466203e-05,8.662262180057119e-14,7.016058824526582e-09,0.018851886748667283,487.0,3.0,0.8160000000000001,1.0
1.2226513253050862e-05,8.375590318863965e-14,6.850350664588711e-09,0.018444862591848424,487.0,4.0,1.088,1.0
1.2098415523120742e-05,8.095598753773684e-14,6.691453718301001e-09,0.018043429223092388,487.0,5.0,1.36,1.0
1.196204311767657e-05,7.822144931756718e-14,6.539137883726372e-09,0.017647802675803858,487.0,6.0,1.6320000000000001,1.0
1.1817396036718504e-05,7.55508491786702e-14,6.393189239314808e-09,0.017258198983387506,487.0,7.0,1.9040000000000001,1.0
1.1664474280245627e-05,7.294273395242046e-14,6.253409472208503e-09,0.016874834179248035,487.0,8.0,2.176,1.0
1.1503277848258942e-05,7.039563665102757e-14,6.119615433063905e-09,0.016497924296790114,487.0,9.0,2.4480000000000004,1.0
1.1333806740757813e-05,6.790807646753625e-14,5.991638821873516e-09,0.016127685369418436,487.0,10.0,2.72,1.0
1.1156060957742512e-05,6.547855877582626e-14,5.869326012456299e-09,0.015764333430537684,487.0,11.0,2.992,1.0
1.0970040499212919e-05,6.310557513061246e-14,5.75253802710575e-09,0.015408084513552541,487.0,12.0,3.2640000000000002,1.0
1.0775745365169397e-05,6.078760326744469e-14,5.6411506775140925e-09,0.015059154651867681,487.0,13.0,3.5360000000000005,1.0
1.0573175555610944e-05,5.852310710270799e-14,5.535054893858365e-09,0.014717759878887814,487.0,14.0,3.8080000000000003,1.0
1.0362331070538822e-05,5.63105367336223e-14,5.434157271206956e-09,0.014384116228017605,487.0,15.0,4.08,1.0
