dI/dz, Integral_trapz, Conc.(mol/cm^3), D(cm^2/sec), Time(sec), Position(element), depth(μm), crystal
7.909090402357793e-08,1.0505432828173748e-15,1.3282732013079475e-08,0.0006530747949033299,7.0,99.0,0.20400000000000001,2.0
7.59815191248436e-08,1.0253858727863544e-15,8.090799579447617e-09,0.0006510789857867437,7.0,98.0,0.40800000000000003,2.0
7.290464919642228e-08,1.0004993684561127e-15,8.088253617861055e-09,0.0006491601081859711,7.0,97.0,0.6120000000000001,2.0
6.98602942383368e-08,9.7587421217842e-16,8.088792738274845e-09,0.0006473173874745823,7.0,96.0,0.8160000000000001,2.0
6.684845425057703e-08,9.515009323357369e-16,8.092488293447481e-09,0.0006455500490261469,7.0,95.0,1.02,2.0
6.386912923312519e-08,9.273701433412151e-16,8.099414751050022e-09,0.0006438573182142362,7.0,94.0,1.2240000000000002,2.0
6.092231918599652e-08,9.034725456386989e-16,8.109649865556067e-09,0.00064223842041242,7.0,93.0,1.428,2.0
5.800802410920876e-08,8.797989257027232e-16,8.123274861401305e-09,0.0006406925809942683,7.0,92.0,1.6320000000000001,2.0
5.5126244002721337e-08,8.563401560385165e-16,8.140374628652836e-09,0.000639219025333352,7.0,91.0,1.836,2.0
5.227697886656468e-08,8.330871951819981e-16,8.161037932708536e-09,0.0006378169788032411,7.0,90.0,2.04,2.0
4.946022870074639e-08,8.10031087699779e-16,8.185357637325675e-09,0.0006364856667775055,7.0,89.0,2.244,2.0
4.667599350522592e-08,7.871629641891615e-16,8.213430944127772e-09,0.000635224314629716,7.0,88.0,2.4480000000000004,2.0
4.3924273280046345e-08,7.6447404127814e-16,8.245359649359304e-09,0.0006340321477334428,7.0,87.0,2.652,2.0
4.120506802516712e-08,7.419556216254007e-16,8.281250417684807e-09,0.0006329083914622562,7.0,86.0,2.856,2.0
3.851837774064147e-08,7.195990939203215e-16,8.321215077839283e-09,0.0006318522711897261,7.0,85.0,3.06,2.0
3.5864202426406035e-08,6.973959328829721e-16,8.365370937731461e-09,0.0006308630122894233,7.0,84.0,3.2640000000000002,2.0
3.32425420825191e-08,6.753376992641144e-16,8.413841125640896e-09,0.0006299398401349177,7.0,83.0,3.4680000000000004,2.0
3.0653396708952796e-08,6.534160398452009e-16,8.466754954249033e-09,0.0006290819800997796,7.0,82.0,3.672,2.0
2.8096766305684306e-08,6.316226874383764e-16,8.524248314876936e-09,0.0006282886575575796,7.0,81.0,3.8760000000000003,2.0
2.557265087276432e-08,6.09949460886478e-16,8.586464101138999e-09,0.0006275590978818878,7.0,80.0,4.08,2.0
2.3081050410152285e-08,5.88388265063034e-16,8.653552665037063e-09,0.0006268925264462743,7.0,79.0,4.284,2.0
2.0621964917865948e-08,5.669310908722644e-16,8.725672311140255e-09,0.0006262881686243097,7.0,78.0,4.488,2.0
1.819539439591544e-08,5.455700152490815e-16,8.802989828629698e-09,0.0006257452497895641,7.0,77.0,4.692,2.0
1.580133884427035e-08,5.24297201159088e-16,8.885681067582468e-09,0.0006252629953156077,7.0,76.0,4.896000000000001,2.0
1.3439798262953495e-08,5.031048975985798e-16,8.973931563221655e-09,0.0006248406305760109,7.0,75.0,5.1000000000000005,2.0
1.111077265196233e-08,4.819854395945439e-16,9.067937211325072e-09,0.0006244773809443439,7.0,74.0,5.304,2.0
8.814262011289258e-09,4.609312482046598e-16,9.167905002048441e-09,0.0006241724717941773,7.0,73.0,5.508000000000001,2.0
6.550266340941879e-09,4.3993483051729726e-16,9.274053816605108e-09,0.0006239251284990808,7.0,72.0,5.712,2.0
4.318785640912591e-09,4.189887796515189e-16,9.386615293380502e-09,0.0006237345764326253,7.0,71.0,5.916,2.0
2.119819911221671e-09,3.980857747570788e-16,9.505834771412365e-09,0.0006236000409683805,7.0,70.0,6.12,2.0
-4.6630848176501986e-11,3.7721858101442267e-16,9.631972317918237e-09,0.0006235207474799172,7.0,69.0,6.324000000000001,2.0
-2.1805666372236377e-09,3.563800496346882e-16,9.765303851546289e-09,0.0006234959213408053,7.0,68.0,6.5280000000000005,2.0
-4.281987455967887e-09,3.355631178597044e-16,9.906122366972368e-09,0.0006235247879246155,7.0,67.0,6.732000000000001,2.0
-6.3508933043611005e-09,3.1476080896199287e-16,1.005473927867107e-08,0.0006236065726049173,7.0,66.0,6.936000000000001,2.0
-8.387284182474235e-09,2.939662322447661e-16,1.0211485889435177e-08,0.0006237405007552819,7.0,65.0,7.14,2.0
-1.0391160090231265e-08,2.7317258304192855e-16,1.0376715006326017e-08,0.0006239257977492791,7.0,64.0,7.344,2.0
-1.2362521027675272e-08,2.523731427180766e-16,1.0550802711359264e-08,0.0006241616889604791,7.0,63.0,7.548,2.0
-1.4301366994803722e-08,2.3156127866849807e-16,1.0734150315407548e-08,0.0006244473997624526,7.0,62.0,7.752000000000001,2.0
-1.6207697991606478e-08,2.1073044431917295e-16,1.0927186508671376e-08,0.0006247821555287695,7.0,61.0,7.956,2.0
-1.808151401806833e-08,1.8987417912677257e-16,1.1130369736340263e-08,0.000625165181633,7.0,60.0,8.16,2.0
-1.9922815074234904e-08,1.689861085786603e-16,1.134419082537182e-08,0.0006255957034487149,7.0,59.0,8.364,2.0
-2.1731601160065647e-08,1.480599441928914e-16,1.1569175896307207e-08,0.0006260729463494839,7.0,58.0,8.568,2.0
-2.350787227557323e-08,1.2708948351821218e-16,1.1805889591739916e-08,0.0006265961357088775,7.0,57.0,8.772,2.0
-2.5251628420767786e-08,1.0606861013406125e-16,1.2054938669079538e-08,0.0006271644969004662,7.0,56.0,8.976,2.0
-2.6962869595629045e-08,8.499129365056877e-17,1.2316976001469433e-08,0.0006277772552978203,7.0,55.0,9.180000000000001,2.0
-2.8641595800154477e-08,6.385158970855686e-17,1.2592705043278933e-08,0.0006284336362745093,7.0,54.0,9.384,2.0
-3.0287807034392225e-08,4.264363997953916e-17,1.288288482543232e-08,0.0006291328652041045,7.0,53.0,9.588000000000001,2.0
-3.1901503298286544e-08,2.136167216572117e-17,1.3188335556072003e-08,0.0006298741674601755,7.0,52.0,9.792000000000002,2.0
-3.3482684591867833e-08,0.0,1.35099449079227e-08,0.0006306567684162932,7.0,51.0,9.996,2.0
2.4353107665282396e-07,3.236776092124819e-15,1.3291018693023487e-08,0.0010434898058734818,127.0,99.0,0.20400000000000001,2.0
2.3532748253183844e-07,3.1586784486853532e-15,9.519930202261597e-09,0.0010373690928962434,127.0,98.0,0.40800000000000003,2.0
2.2719115218397813e-07,3.0813975769385645e-15,9.498246561130847e-09,0.0010314520731067771,127.0,97.0,0.6120000000000001,2.0
2.1912208560923288e-07,3.0049080626240623e-15,9.4793510012547e-09,0.0010257372011819059,127.0,96.0,0.8160000000000001,2.0
2.1112028280765086e-07,2.9291846464684614e-15,9.463294464171219e-09,0.0010202229317984512,127.0,95.0,1.02,2.0
2.031857437791383e-07,2.8542022241853797e-15,9.45012961857448e-09,0.0010149077196332367,127.0,94.0,1.2240000000000002,2.0
1.9531846852378133e-07,2.7799358464754424e-15,9.439910934776055e-09,0.0010097900193630843,127.0,93.0,1.428,2.0
1.875184570415673e-07,2.7063607190262766e-15,9.432694761659712e-09,0.0010048682856648157,127.0,92.0,1.6320000000000001,2.0
1.7978570933243798e-07,2.6334522025125147e-15,9.428539408790698e-09,0.0010001409732152545,127.0,91.0,1.836,2.0
1.721202253964541e-07,2.5611858125957966e-15,9.427505232576359e-09,0.0009956065366912223,127.0,90.0,2.04,2.0
1.6452200523360807e-07,2.4895372199247584e-15,9.4296547264302e-09,0.0009912634307695418,127.0,89.0,2.244,2.0
1.5699104884386957e-07,2.418482250135049e-15,9.435052616494665e-09,0.0009871101101270356,127.0,88.0,2.4480000000000004,2.0
1.4952735622725876e-07,2.3479968838493186e-15,9.443765962288113e-09,0.000983145029440526,127.0,87.0,2.652,2.0
1.4213092738376555e-07,2.2780572566772227e-15,9.455864262606037e-09,0.0009793666433868353,127.0,86.0,2.856,2.0
1.3480176231343306e-07,2.2086396592154214e-15,9.471419567665989e-09,0.0009757734066427857,127.0,85.0,3.06,2.0
1.2753986101617252e-07,2.139720537047577e-15,9.490506596921553e-09,0.0009723637738852005,127.0,84.0,3.2640000000000002,2.0
1.2034522349207267e-07,2.0712764907443587e-15,9.51320286448784e-09,0.0009691361997909015,127.0,83.0,3.4680000000000004,2.0
1.132178497411031e-07,2.0032842758634395e-15,9.539588810207949e-09,0.0009660891390367109,127.0,82.0,3.672,2.0
1.0615773976323084e-07,1.935720802949498e-15,9.569747939578603e-09,0.0009632210462994517,127.0,81.0,3.8760000000000003,2.0
9.916489355850155e-08,1.868563137534216e-15,9.6037669711459e-09,0.000960530376255946,127.0,80.0,4.08,2.0
9.223931112690506e-08,1.8017885001362788e-15,9.641735992238314e-09,0.000958015583583016,127.0,79.0,4.284,2.0
8.538099246840588e-08,1.7353742662613786e-15,9.683748624394458e-09,0.0009556751229574849,127.0,78.0,4.488,2.0
7.858993758305726e-08,1.6692979664022104e-15,9.729902198511845e-09,0.0009535074490561744,127.0,77.0,4.692,2.0
7.186614647082623e-08,1.6035372860384746e-15,9.780297939969127e-09,0.0009515110165559072,127.0,76.0,4.896000000000001,2.0
6.520961913172549e-08,1.5380700656368748e-15,9.835041165840688e-09,0.0009496842801335055,127.0,75.0,5.1000000000000005,2.0
5.862035556574234e-08,1.4728743006511205e-15,9.894241493438694e-09,0.0009480256944657921,127.0,74.0,5.304,2.0
5.209835577287173e-08,1.407928141521925e-15,9.958013062219051e-09,0.0009465337142295895,127.0,73.0,5.508000000000001,2.0
4.56436197531618e-08,1.3432098936770065e-15,1.0026474769424712e-08,0.0009452067941017195,127.0,72.0,5.712,2.0
3.925614750654919e-08,1.278698017531087e-15,1.0099750520267425e-08,0.0009440433887590049,127.0,71.0,5.916,2.0
3.293593903307447e-08,1.2143711284858945e-15,1.017796949501998e-08,0.0009430419528782682,127.0,70.0,6.12,2.0
2.668299433270467e-08,1.1502079969301596e-15,1.0261266432108437e-08,0.000942200941136332,127.0,69.0,6.324000000000001,2.0
2.049731340549302e-08,1.0861875482396185e-15,1.0349781930863336e-08,0.000941518808210018,127.0,68.0,6.5280000000000005,2.0
1.4378896251358426e-08,1.0222888627770118e-15,1.0443662773046852e-08,0.0009409940087761498,127.0,67.0,6.732000000000001,2.0
8.32774287041746e-09,9.584911758920839e-16,1.05430622674131e-08,0.0009406249975115486,127.0,66.0,6.936000000000001,2.0
2.3438532625358086e-09,8.947738779215849e-16,1.0648140615190172e-08,0.0009404102290930378,127.0,65.0,7.14,2.0
-3.5727725721851605e-09,8.311165141892687e-16,1.0759065303530087e-08,0.0009403481581974391,127.0,64.0,7.344,2.0
-9.422134633775857e-09,7.674987850058935e-16,1.0876011522883035e-08,0.000940437239501575,127.0,63.0,7.548,2.0
-1.520423292227176e-08,7.03900545669222e-16,1.099916261596709e-08,0.0009406759276822684,127.0,62.0,7.752000000000001,2.0
-2.0919067437624722e-08,6.403018064640222e-16,1.112871055746953e-08,0.0009410626774163417,127.0,61.0,7.956,2.0
-2.6566638179847408e-08,5.766827326620658e-16,1.1264856467635537e-08,0.000941595943380617,127.0,60.0,8.16,2.0
-3.214694514895503e-08,5.13023644522129e-16,1.1407811163857334e-08,0.0009422741802519168,127.0,59.0,8.364,2.0
-3.765998834491717e-08,4.493050172899929e-16,1.1557795752227166e-08,0.0009430958427070632,127.0,58.0,8.568,2.0
-4.310576776778452e-08,3.8550748119844285e-16,1.1715042262574577e-08,0.0009440593854228794,127.0,57.0,8.772,2.0
-4.848428341751652e-08,3.216118214672687e-16,1.1879794332170055e-08,0.0009451632630761875,127.0,56.0,8.976,2.0
-5.379553529411065e-08,2.5759897830326523e-16,1.2052307940073077e-08,0.0009464059303438096,127.0,55.0,9.180000000000001,2.0
-5.903952339757452e-08,1.9345004690023081e-16,1.223285219900888e-08,0.0009477858419025683,127.0,54.0,9.384,2.0
-6.421624772794866e-08,1.2914627743896913e-16,1.2421710208512162e-08,0.0009493014524292865,127.0,53.0,9.588000000000001,2.0
-6.932570828516463e-08,6.466907508728806e-17,1.2619179975980316e-08,0.0009509512166007859,127.0,52.0,9.792000000000002,2.0
-7.43679050692757e-08,0.0,1.2825575410121406e-08,0.0009527335890938894,127.0,51.0,9.996,2.0
6.195881082937809e-07,5.37168825878899e-15,8.669773010301186e-09,0.0017203785800817672,247.0,99.0,0.20400000000000001,2.0
6.009006042119218e-07,5.236419073023215e-15,7.238483275949521e-09,0.0017057740340378086,247.0,98.0,0.40800000000000003,2.0
5.823271105638019e-07,5.102832534654412e-15,7.19232153625144e-09,0.001691606400696782,247.0,97.0,0.6120000000000001,2.0
5.638676273493602e-07,4.9708818278957385e-15,7.148125720845924e-09,0.001677873293124595,247.0,96.0,0.8160000000000001,2.0
5.455221545686779e-07,4.8405203062081854e-15,7.105923256707951e-09,0.001664572324387154,247.0,95.0,1.02,2.0
5.272906922216436e-07,4.71170149230058e-15,7.065742256740048e-09,0.001651701107550367,247.0,94.0,1.2240000000000002,2.0
5.091732403083332e-07,4.584379078129577e-15,7.027611541635313e-09,0.0016392572556801414,247.0,93.0,1.428,2.0
4.911697988287466e-07,4.45850692489967e-15,6.991560662033913e-09,0.0016272383818423841,247.0,92.0,1.6320000000000001,2.0
4.7328036778280294e-07,4.334039063063182e-15,6.957619921887334e-09,0.0016156420991030034,247.0,91.0,1.836,2.0
4.55504947170644e-07,4.2109296923202695e-15,6.925820402736479e-09,0.0016044660205279046,247.0,90.0,2.04,2.0
4.378435369921532e-07,4.0891331816189284e-15,6.896193988500007e-09,0.001593707759182996,247.0,89.0,2.244,2.0
4.202961372473661e-07,3.968604069154979e-15,6.8687733918955944e-09,0.001583364928134185,247.0,88.0,2.4480000000000004,2.0
4.02862747936308e-07,3.849297062372083e-15,6.8435921813103295e-09,0.0015734351404473779,247.0,87.0,2.652,2.0
3.855433690589079e-07,3.731167037961727e-15,6.820684808997546e-09,0.0015639160091884834,247.0,86.0,2.856,2.0
3.683380006152723e-07,3.614169041863238e-15,6.800086640502481e-09,0.0015548051474234075,247.0,85.0,3.06,2.0
3.512466426052795e-07,3.498258289263772e-15,6.7818339848534e-09,0.0015461001682180583,247.0,84.0,3.2640000000000002,2.0
3.3426929502901567e-07,3.3833901645983226e-15,6.76596412657814e-09,0.001537798684638343,247.0,83.0,3.4680000000000004,2.0
3.174059578864961e-07,3.2695202215497104e-15,6.7525153583923804e-09,0.0015298983097501678,247.0,82.0,3.672,2.0
3.006566311776345e-07,3.1566041830485953e-15,6.74152701561279e-09,0.0015223966566194408,247.0,81.0,3.8760000000000003,2.0
2.8402131490248674e-07,3.044597941273467e-15,6.733039511996491e-09,0.0015152913383120693,247.0,80.0,4.08,2.0
2.675000090610629e-07,2.933457557650651e-15,6.7270943767746196e-09,0.0015085799678939602,247.0,79.0,4.284,2.0
2.510927136533224e-07,2.8231392628543036e-15,6.723734293484005e-09,0.001502260158431021,247.0,78.0,4.488,2.0
2.3479942867929062e-07,2.713599456806415e-15,6.723003140402517e-09,0.001496329522989159,247.0,77.0,4.692,2.0
2.186201541389777e-07,2.604794708676809e-15,6.724946032561816e-09,0.0014907856746342808,247.0,76.0,4.896000000000001,2.0
2.0255489003236338e-07,2.496681756883143e-15,6.72960936565956e-09,0.0014856262264322944,247.0,75.0,5.1000000000000005,2.0
1.8660363635945267e-07,2.389217509090908e-15,6.737040861856315e-09,0.0014808487914491067,247.0,74.0,5.304,2.0
1.707663931202406e-07,2.282359042213426e-15,6.747289617482594e-09,0.0014764509827506248,247.0,73.0,5.508000000000001,2.0
1.5504316031473719e-07,2.1760636024118557e-15,6.760406152885103e-09,0.001472430413402757,247.0,72.0,5.712,2.0
1.3943393794295266e-07,2.0702886050951873e-15,6.776442464415712e-09,0.0014687846964714089,247.0,71.0,5.916,2.0
1.2393872600486673e-07,1.9649916349202443e-15,6.795452078724517e-09,0.0014655114450224883,247.0,70.0,6.12,2.0
1.0855752450046415e-07,1.8601304457916835e-15,6.817490109504535e-09,0.0014626082721219034,247.0,69.0,6.324000000000001,2.0
9.329033342979565e-08,1.7556629608619949e-15,6.842613316760845e-09,0.0014600727908355604,247.0,68.0,6.5280000000000005,2.0
7.813715279280037e-08,1.6515472725315017e-15,6.870880168636219e-09,0.001457902614229367,247.0,67.0,6.732000000000001,2.0
6.309798258956957e-08,1.547741642448362e-15,6.90235090635782e-09,0.0014560953553692298,247.0,66.0,6.936000000000001,2.0
4.8172822819961324e-08,1.4442045015085636e-15,6.937087611660191e-09,0.0014546486273210573,247.0,65.0,7.14,2.0
3.3361673484132755e-08,1.3408944498559313e-15,6.975154278049342e-09,0.0014535600431507553,247.0,64.0,7.344,2.0
1.866453458197742e-08,1.2377702568821215e-15,7.016616884439096e-09,0.001452827215924232,247.0,63.0,7.548,2.0
4.081406113510535e-09,1.1347908612266242e-15,7.061543473210826e-09,0.0014524477587073946,247.0,62.0,7.752000000000001,2.0
-1.0387711921222292e-08,1.0319153707767624e-15,7.1100042312814935e-09,0.0014524192845661497,247.0,61.0,7.956,2.0
-2.4742819522276813e-08,9.291030626676924e-16,7.162071575243188e-09,0.0014527394065664053,247.0,60.0,8.16,2.0
-3.898391668959727e-08,8.263133832824042e-16,7.2178202407861736e-09,0.0014534057377740682,247.0,59.0,8.364,2.0
-5.3111003423209016e-08,7.235059482517211e-16,7.277327376073894e-09,0.0014544158912550454,247.0,58.0,8.568,2.0
-6.712407972315764e-08,6.206405424542993e-16,7.340672640011166e-09,0.0014557674800752447,247.0,57.0,8.772,2.0
-8.10231455893773e-08,5.176771200166281e-16,7.407938305257903e-09,0.0014574581173005734,247.0,56.0,8.976,2.0
-9.480820102187809e-08,4.1457580431303033e-16,7.47920936614571e-09,0.0014594854159969382,247.0,55.0,9.180000000000001,2.0
-1.084792460206803e-07,3.1129688796566264e-16,7.554573652300645e-09,0.0014618469892302465,247.0,54.0,9.384,2.0
-1.2203628058579915e-07,2.078008328445143e-16,7.63412194783624e-09,0.0014645404500664059,247.0,53.0,9.588000000000001,2.0
-1.35479304717189e-07,1.040482700674081e-16,7.717948116662304e-09,0.001467563411571323,247.0,52.0,9.792000000000002,2.0
-1.4880831841489543e-07,0.0,7.80614923408114e-09,0.0014709134868109064,247.0,51.0,9.996,2.0
1.2603661382467058e-06,6.5316657200036144e-15,5.182355762976788e-09,0.002587691880273582,367.0,99.0,0.20400000000000001,2.0
1.2250618865338113e-06,6.3585606833362454e-15,4.903234830612329e-09,0.0025600436398542817,367.0,98.0,0.40800000000000003,2.0
1.1899197212002798e-06,6.188044721772683e-15,4.85217572523517e-09,0.0025331705515460935,367.0,97.0,0.6120000000000001,2.0
1.15493964224604e-06,6.020049897520342e-15,4.802585622293998e-09,0.0025070694118707005,367.0,96.0,0.8160000000000001,2.0
1.1201216496711632e-06,5.854508436993555e-15,4.7544803213679504e-09,0.0024817370173497847,367.0,95.0,1.02,2.0
1.0854657434755173e-06,5.691352730813586e-15,4.707875917567753e-09,0.00245717016450503,367.0,94.0,1.2240000000000002,2.0
1.0509719236592344e-06,5.530515333808622e-15,4.662788808592335e-09,0.0024333656498581177,367.0,93.0,1.428,2.0
1.0166401902222636e-06,5.371928965013775e-15,4.6192357017449645e-09,0.0024103202699307306,367.0,92.0,1.6320000000000001,2.0
9.824705431645542e-07,5.2155265076710866e-15,4.577233621363992e-09,0.002388030821244552,367.0,91.0,1.836,2.0
9.484629824861876e-07,5.061241009229517e-15,4.536799916370228e-09,0.002366494100321265,367.0,90.0,2.04,2.0
9.146175081871533e-07,4.9090056813449586e-15,4.497952267990593e-09,0.0023457069036825515,367.0,89.0,2.244,2.0
8.809341202674007e-07,4.758753899880226e-15,4.460708697791707e-09,0.0023256660278500934,367.0,88.0,2.4480000000000004,2.0
8.474128187269908e-07,4.6104192049050565e-15,4.425087575921015e-09,0.002306368269345575,367.0,87.0,2.652,2.0
8.140536035658374e-07,4.46393530069612e-15,4.391107629519893e-09,0.002287810424690678,367.0,86.0,2.856,2.0
7.808564747840415e-07,4.319236055737002e-15,4.358787951519035e-09,0.002269989290407085,367.0,85.0,3.06,2.0
7.478214323815174e-07,4.1762555027182235e-15,4.328148009516521e-09,0.0022529016630164797,367.0,84.0,3.2640000000000002,2.0
7.149484763582954e-07,4.034927838537222e-15,4.299207655106071e-09,0.002236544339040545,367.0,83.0,3.4680000000000004,2.0
6.822376067144767e-07,3.89518742429837e-15,4.271987133342949e-09,0.00222091411500096,367.0,82.0,3.672,2.0
6.496888234498841e-07,3.756968785312955e-15,4.246507092502391e-09,0.0022060077874194116,367.0,81.0,3.8760000000000003,2.0
6.173021265645832e-07,3.620206611099197e-15,4.222788594283271e-09,0.0021918221528175815,367.0,80.0,4.08,2.0
5.850775160586808e-07,3.4848357553822394e-15,4.20085312411029e-09,0.0021783540077171502,367.0,79.0,4.284,2.0
5.530149919320196e-07,3.3507912360941516e-15,4.180722601831104e-09,0.002165600148639803,367.0,78.0,4.488,2.0
5.211145541846706e-07,3.2180082353739275e-15,4.162419392857979e-09,0.0021535573721072213,367.0,77.0,4.692,2.0
4.893762028166844e-07,3.086422099567487e-15,4.145966319446842e-09,0.002142222474641087,367.0,76.0,4.896000000000001,2.0
4.5779993782792925e-07,2.9559683392276765e-15,4.131386672434739e-09,0.0021315922527630855,367.0,75.0,5.1000000000000005,2.0
