dI/dz, Integral_trapz, Conc.(mol/cm^3), D(cm^2/sec), Time(sec), Position(element), depth(μm), crystal
8.36642284132103e-07,5.463591935813254e-15,6.530379876127049e-09,0.001657378100056466,7.0,99.0,0.272,1.0
8.173832454110179e-07,5.242955603756679e-15,1.1456248427135595e-08,0.0016253171922285085,7.0,98.0,0.544,1.0
7.982719326311947e-07,5.029341873209844e-15,1.1177344696715928e-08,0.0015940377229351225,7.0,97.0,0.8160000000000001,1.0
7.793083457926831e-07,4.822568269297702e-15,1.0903718039892195e-08,0.0015635328306080598,7.0,96.0,1.088,1.0
7.604924848954449e-07,4.622454175213554e-15,1.0635393999618743e-08,0.001533795653679071,7.0,95.0,1.36,1.0
7.418243499394763e-07,4.428820832219046e-15,1.0372398927435392e-08,0.0015048193305799086,7.0,94.0,1.6320000000000001,1.0
7.233039409248155e-07,4.2414913396441685e-15,1.0114760015644738e-08,0.0014765969997423227,7.0,93.0,1.9040000000000001,1.0
7.049312578514262e-07,4.060290654887261e-15,9.8625053310453e-09,0.0014491217995980658,7.0,92.0,2.176,1.0
6.867063007193274e-07,3.885045593415005e-15,9.615663850512133e-09,0.0014223868685788884,7.0,91.0,2.4480000000000004,1.0
6.686290695285116e-07,3.715584828762432e-15,9.374265498063041e-09,0.0013963853451165423,7.0,90.0,2.72,1.0
6.506995642789883e-07,3.5517388925329123e-15,9.138341183947363e-09,0.0013711103676427785,7.0,89.0,2.992,1.0
6.329177849707365e-07,3.3933401743981654e-15,8.907922845563662e-09,0.0013465550745893487,7.0,88.0,3.2640000000000002,1.0
6.15283731603781e-07,3.240222922098259e-15,8.683043490547258e-09,0.0013227126043880042,7.0,87.0,3.5360000000000005,1.0
5.977974041780951e-07,3.092223241441604e-15,8.463737241889685e-09,0.0012995760954704963,7.0,86.0,3.8080000000000003,1.0
5.804588026937359e-07,2.949179096304959e-15,8.250039385568824e-09,0.0012771386862685755,7.0,85.0,4.08,1.0
5.632679271506007e-07,2.810930308633426e-15,8.041986420333318e-09,0.001255393515213995,7.0,84.0,4.352,1.0
5.462247775487923e-07,2.6773185584404513e-15,7.83961611055722e-09,0.001234333720738505,7.0,83.0,4.6240000000000006,1.0
5.293293538882687e-07,2.5481873838078337e-15,7.64296754122445e-09,0.0012139524412738563,7.0,82.0,4.896000000000001,1.0
5.125816561690127e-07,2.4233821808857077e-15,7.452081176425188e-09,0.0011942428152518013,7.0,81.0,5.168,1.0
4.959816843910493e-07,2.3027502038925605e-15,7.26699892064196e-09,0.0011751979811040908,7.0,80.0,5.44,1.0
4.795294385543746e-07,2.186140565115225e-15,7.087764183379368e-09,0.0011568110772624764,7.0,79.0,5.712,1.0
4.632249186589771e-07,2.073404234908877e-15,6.914421947387239e-09,0.0011390752421587091,7.0,78.0,5.984,1.0
4.4706812470487775e-07,1.9643940416970386e-15,6.747018840589953e-09,0.0011219836142245406,7.0,77.0,6.256,1.0
4.310590566920518e-07,1.858964671971577e-15,6.585603211941834e-09,0.0011055293318917223,7.0,76.0,6.5280000000000005,1.0
4.1519771462051466e-07,1.7569726702927074e-15,6.43022521164158e-09,0.0010897055335920053,7.0,75.0,6.800000000000001,1.0
3.9948409849026226e-07,1.6582764392889887e-15,6.280936875739588e-09,0.0010745053577571409,7.0,74.0,7.072000000000001,1.0
3.839182083012947e-07,1.5627362396573264e-15,6.13779221565993e-09,0.0010599219428188806,7.0,73.0,7.344,1.0
3.685000440536178e-07,1.4702141901629719e-15,6.000847312824229e-09,0.0010459484272089755,7.0,72.0,7.6160000000000005,1.0
3.5322960574721625e-07,1.380574267639521e-15,5.870160418766279e-09,0.0010325779493591777,7.0,71.0,7.888000000000001,1.0
3.3810689338210515e-07,1.2936823069889159e-15,5.745792061156269e-09,0.0010198036477012378,7.0,70.0,8.16,1.0
3.231319069582828e-07,1.209406001181445e-15,5.6278051560302905e-09,0.0010076186606669073,7.0,69.0,8.432,1.0
3.0830464647574335e-07,1.1276149012557424e-15,5.516265126792607e-09,0.0009960161266879377,7.0,68.0,8.704,1.0
2.9362511193448123e-07,1.0481804163187864e-15,5.411240030375399e-09,0.00098498918419608,7.0,67.0,8.976,1.0
2.7909330333453435e-07,9.709758135459018e-16,5.312800691110595e-09,0.0009745309716230854,7.0,66.0,9.248000000000001,1.0
2.647092206758191e-07,8.958762181807597e-16,5.221020842760483e-09,0.0009646346274007065,7.0,65.0,9.520000000000001,1.0
2.504728639584305e-07,8.227586135353767e-16,5.135977279641749e-09,0.0009552932899606935,7.0,64.0,9.792000000000002,1.0
2.363842331823211e-07,7.515018409901142e-16,5.057750016850132e-09,0.0009465000977347981,7.0,63.0,10.064000000000002,1.0
2.2244332834748322e-07,6.8198659999368e-16,4.986422461095767e-09,0.0009382481891547716,7.0,62.0,10.336,1.0
2.086501494539416e-07,6.140954480631279e-16,4.922081592252878e-09,0.0009305307026523654,7.0,61.0,10.608,1.0
1.9500469650168674e-07,5.477128007838564e-16,4.8648181567546965e-09,0.0009233407766593303,7.0,60.0,10.88,1.0
1.8150696949071107e-07,4.827249318096106e-16,4.8147268737470396e-09,0.0009166715496074187,7.0,59.0,11.152,1.0
1.6815696842103353e-07,4.1901997286248085e-16,4.7719066548860215e-09,0.0009105161599283806,7.0,58.0,11.424,1.0
1.5495469329261047e-07,3.5648791373290275e-16,4.736460838855976e-09,0.000904867746053969,7.0,57.0,11.696,1.0
1.4190014410549693e-07,2.950206022796583e-16,4.708497441943102e-09,0.0008997194464159342,7.0,56.0,11.968,1.0
1.2899332085966636e-07,2.3451174442987486e-16,4.688129425598992e-09,0.0008950643994460277,7.0,55.0,12.24,1.0
1.1623422355511877e-07,1.7485690417902586e-16,4.67547498282554e-09,0.0008908957435760007,7.0,54.0,12.512,1.0
1.0362285219185793e-07,1.1595350359092977e-16,4.670657844530067e-09,0.0008872066172376048,7.0,53.0,12.784,1.0
9.115920676987434e-08,5.770082279775108e-17,4.6738076077189766e-09,0.0008839901588625913,7.0,52.0,13.056000000000001,1.0
7.884328728918892e-08,0.0,4.685060087331767e-09,0.0008812395068827116,7.0,51.0,13.328000000000001,1.0
3.0639342093041783e-06,1.5130750589183598e-14,4.938340563330765e-09,0.003976924633926959,127.0,99.0,0.272,1.0
2.9888793340931928e-06,1.4518634138150592e-14,8.155585487448956e-09,0.0038715356364006576,127.0,98.0,0.544,1.0
2.914508523685976e-06,1.3925930386822648e-14,7.969574999688709e-09,0.003768785298546824,127.0,97.0,0.8160000000000001,1.0
2.8408217780826577e-06,1.3352143730337273e-14,7.786836720599267e-09,0.003668649023774297,127.0,96.0,1.088,1.0
2.7678190972831052e-06,1.2796783319179354e-14,7.60739749657691e-09,0.0035711022154919204,127.0,95.0,1.36,1.0
2.695500481287329e-06,1.2259363059181177e-14,7.431285189826715e-09,0.0034761202771085363,127.0,94.0,1.6320000000000001,1.0
2.6238659300953906e-06,1.1739401611522402e-14,7.2585287268092845e-09,0.0033836786120329866,127.0,93.0,1.9040000000000001,1.0
2.5529154437072598e-06,1.1236422392730088e-14,7.089158149540972e-09,0.003293752623674112,127.0,92.0,2.176,1.0
2.482649022122958e-06,1.0749953574678682e-14,6.9232046699257164e-09,0.0032063177154407537,127.0,91.0,2.4480000000000004,1.0
2.4130666653424375e-06,1.0279528084590007e-14,6.760700727233334e-09,0.003121349290741755,127.0,90.0,2.72,1.0
2.344168373365751e-06,9.824683605033296e-15,6.601680049058666e-09,0.003038822752985957,127.0,89.0,2.992,1.0
2.275954146192837e-06,9.384962573925154e-15,6.446177715881889e-09,0.0029587135055822024,127.0,88.0,3.2640000000000002,1.0
2.208423983823761e-06,8.959912184529581e-15,6.2942302296346104e-09,0.002880996951939332,127.0,87.0,3.5360000000000005,1.0
2.141577886258484e-06,8.549084385457966e-15,6.145875586386052e-09,0.0028056484954661876,127.0,86.0,3.8080000000000003,1.0
2.075415853497049e-06,8.152035880669078e-15,6.001153353624314e-09,0.0027326435395716112,127.0,85.0,4.08,1.0
2.009937885539352e-06,7.768328129469085e-15,5.860104752302252e-09,0.0026619574876644452,127.0,84.0,4.352,1.0
1.9451439823855125e-06,7.397527346511538e-15,5.722772744175604e-09,0.002593565743153531,127.0,83.0,4.6240000000000006,1.0
1.8810341440355217e-06,7.039204501797376e-15,5.589202124609831e-09,0.0025274437094477084,127.0,82.0,4.896000000000001,1.0
1.817608370489262e-06,6.692935320674931e-15,5.459439621495401e-09,0.0024635667899558225,127.0,81.0,5.168,1.0
1.754866661746855e-06,6.358300283839922e-15,5.333534000626129e-09,0.002401910388086713,127.0,80.0,5.44,1.0
1.6928090178082514e-06,6.034884627335451e-15,5.21153617795159e-09,0.0023424499072492223,127.0,79.0,5.712,1.0
1.63143543867344e-06,5.722278342552015e-15,5.0934993394596395e-09,0.002285160750852193,127.0,78.0,5.984,1.0
1.5707459243424698e-06,5.420076176227499e-15,4.979479069093493e-09,0.0022300183223044646,127.0,77.0,6.256,1.0
1.5107404748152805e-06,5.1278776304471726e-15,4.869533485419979e-09,0.0021769980250148815,127.0,76.0,6.5280000000000005,1.0
1.4514190900919287e-06,4.845286962643697e-15,4.763723387802746e-09,0.002126075262392283,127.0,75.0,6.800000000000001,1.0
1.392781770172361e-06,4.57191318559712e-15,4.6621124127358e-09,0.0020772254378455127,127.0,74.0,7.072000000000001,1.0
1.3348285150566158e-06,4.30737006743488e-15,4.564767201322688e-09,0.0020304239547834116,127.0,73.0,7.344,1.0
1.2775593247446704e-06,4.051276131631803e-15,4.47175757869342e-09,0.0019856462166148226,127.0,72.0,7.6160000000000005,1.0
1.2209741992365472e-06,3.8032546570101016e-15,4.383156746486248e-09,0.0019428676267485856,127.0,71.0,7.888000000000001,1.0
1.1650731385322275e-06,3.56293367773938e-15,4.299041489424738e-09,0.0019020635885935433,127.0,70.0,8.16,1.0
1.1098561426317073e-06,3.329945983336628e-15,4.21949239727758e-09,0.0018632095055585384,127.0,69.0,8.432,1.0
1.0553232115350134e-06,3.103929118666225e-15,4.144594103508689e-09,0.0018262807810524113,127.0,68.0,8.704,1.0
1.0014743452421191e-06,2.8845253839399398e-15,4.07443554211348e-09,0.0017912528184840047,127.0,67.0,8.976,1.0
9.483095437530624e-07,2.6713818347169296e-15,4.0091102243066346e-09,0.0017581010212621591,127.0,66.0,9.248000000000001,1.0
8.958288070677557e-07,2.4641502819037387e-15,3.948716536809035e-09,0.001726800792795718,127.0,65.0,9.520000000000001,1.0
8.440321351863058e-07,2.2624872917543015e-15,3.893358063834588e-09,0.0016973275364935221,127.0,64.0,9.792000000000002,1.0
7.929195281086593e-07,2.0660541858699394e-15,3.8431439348408735e-09,0.0016696566557644133,127.0,63.0,10.064000000000002,1.0
7.424909858348008e-07,1.8745170411993633e-15,3.798189200679449e-09,0.001643763554017234,127.0,62.0,10.336,1.0
6.927465083647801e-07,1.6875466900386727e-15,3.758615240724384e-09,0.001619623634660825,127.0,61.0,10.608,1.0
6.436860956985512e-07,1.504818720031354e-15,3.724550204060976e-09,0.0015972123011040288,127.0,60.0,10.88,1.0
5.953097478361411e-07,1.326013474168284e-15,3.696129488146151e-09,0.0015765049567556867,127.0,59.0,11.152,1.0
5.476174647775419e-07,1.1508160507877277e-15,3.673496258614681e-09,0.001557477005024641,127.0,58.0,11.424,1.0
5.006092465227309e-07,9.78916303575337e-16,3.656802014503024e-09,0.0015401038493197332,127.0,57.0,11.696,1.0
4.5428509307173846e-07,8.100088415641537e-16,3.646207203546091e-09,0.0015243608930498055,127.0,56.0,11.968,1.0
4.0864500442456466e-07,6.437930291346083e-16,3.6418818927915917e-09,0.0015102235396236994,127.0,55.0,12.24,1.0
3.6368898058121326e-07,4.799729860145188e-16,3.6440065004618297e-09,0.0014976671924502557,127.0,54.0,12.512,1.0
3.1941702154165e-07,3.182575872790928e-16,3.6527725956493253e-09,0.0014866672549383175,127.0,53.0,12.784,1.0
2.7582912730589024e-07,1.583604633509252e-16,3.668383773331886e-09,0.0014771991304967265,127.0,52.0,13.056000000000001,1.0
2.3292529787396036e-07,0.0,3.6910566130740346e-09,0.0014692382225343237,127.0,51.0,13.328000000000001,1.0
7.709138027474299e-06,2.8464387216376113e-14,3.6922918119941532e-09,0.008316780894705113,247.0,99.0,0.272,1.0
7.520555569911884e-06,2.731883637718861e-14,6.074535532067516e-09,0.008076321319656151,247.0,98.0,0.544,1.0
7.333663549932678e-06,2.6209057696637097e-14,5.938074192118989e-09,0.007841817707730158,247.0,97.0,0.8160000000000001,1.0
7.148461967536836e-06,2.513416552267955e-14,5.80390383306834e-09,0.007613216917189019,247.0,96.0,1.088,1.0
6.964950822724281e-06,2.4093281857173843e-14,5.672046057850613e-09,0.0073904658062946185,247.0,95.0,1.36,1.0
6.78313011549486e-06,2.3085536355877752e-14,5.542523272800388e-09,0.0071735112333088475,247.0,94.0,1.6320000000000001,1.0
6.602999845848756e-06,2.211006632844895e-14,5.4153587253562475e-09,0.0069623000564935904,247.0,93.0,1.9040000000000001,1.0
6.42456001378594e-06,2.1166016738445004e-14,5.2905765438717264e-09,0.006756779134110734,247.0,92.0,2.176,1.0
6.247810619306348e-06,2.0252540203323375e-14,5.1682017797639695e-09,0.006556895324422167,247.0,91.0,2.4480000000000004,1.0
6.072751662410067e-06,1.9368796994441436e-14,5.048260452080377e-09,0.006362595485689773,247.0,90.0,2.72,1.0
5.899383143097035e-06,1.851395503705644e-14,4.93077959465931e-09,0.006173826476175439,247.0,89.0,2.992,1.0
5.727705061367237e-06,1.7687189910325545e-14,4.815787306105439e-09,0.005990535154141053,247.0,88.0,3.2640000000000002,1.0
5.557717417220732e-06,1.6887684847305806e-14,4.70331280272747e-09,0.005812668377848501,247.0,87.0,3.5360000000000005,1.0
5.389420210657424e-06,1.6114630734954177e-14,4.593386474663976e-09,0.005640173005559671,247.0,86.0,3.8080000000000003,1.0
5.222813441677508e-06,1.536722611412751e-14,4.486039945452429e-09,0.005472995895536446,247.0,85.0,4.08,1.0
5.057897110280696e-06,1.464467717958255e-14,4.381306135208687e-09,0.005311083906040718,247.0,84.0,4.352,1.0
4.894671216467255e-06,1.3946197779975941e-14,4.279219327816556e-09,0.0051543838953343685,247.0,83.0,4.6240000000000006,1.0
4.733135760237101e-06,1.3271009417864233e-14,4.179815242232063e-09,0.005002842721679287,247.0,82.0,4.896000000000001,1.0
4.5732907415901195e-06,1.2618341249703849e-14,4.083131108400719e-09,0.004856407243337359,247.0,81.0,5.168,1.0
4.415136160526456e-06,1.1987430085851131e-14,3.9892057480064364e-09,0.004715024318570471,247.0,80.0,5.44,1.0
4.25867201704601e-06,1.1377520390562318e-14,3.898079660436942e-09,0.004578640805640512,247.0,79.0,5.712,1.0
4.1038983111488585e-06,1.078786428199354e-14,3.809795114427319e-09,0.004447203562809366,247.0,78.0,5.984,1.0
3.950815042834994e-06,1.021772153220082e-14,3.724396245733155e-09,0.004320659448338921,247.0,77.0,6.256,1.0
3.799422212104332e-06,9.666359567140092e-15,3.6419291613725053e-09,0.004198955320491063,247.0,76.0,6.5280000000000005,1.0
3.649719818956973e-06,9.133053466667175e-15,3.562442050929395e-09,0.004082038037527679,247.0,75.0,6.800000000000001,1.0
3.501707863392892e-06,8.61708596453779e-15,3.4859853054640665e-09,0.003969854457710655,247.0,74.0,7.072000000000001,1.0
3.355386345412076e-06,8.117747448407556e-15,3.4126116446912532e-09,0.003862351439301877,247.0,73.0,7.344,1.0
3.2107552650144475e-06,7.63433595983199e-15,3.342376253060834e-09,0.0037594758405632344,247.0,72.0,7.6160000000000005,1.0
3.067814622200144e-06,7.166157194266498e-15,3.2753369255076844e-09,0.003661174519756612,247.0,71.0,7.888000000000001,1.0
2.9265644169691274e-06,6.712524501066397e-15,3.2115542236429182e-09,0.0035673943351438955,247.0,70.0,8.16,1.0
2.787004649321283e-06,6.272758883486892e-15,3.1510916433250237e-09,0.003478082144986974,247.0,69.0,8.432,1.0
2.64913531925681e-06,5.846188998683089e-15,3.0940157945521504e-09,0.003393184807547731,247.0,68.0,8.704,1.0
2.512956426775524e-06,5.43215115770999e-15,3.04039659472188e-09,0.0033126491810880556,247.0,67.0,8.976,1.0
2.3784679718775483e-06,5.029989325522492e-15,2.990307476523409e-09,0.0032364221238698333,247.0,66.0,9.248000000000001,1.0
2.2456699545627674e-06,4.639055120975396e-15,2.9438256116462663e-09,0.0031644504941549527,247.0,65.0,9.520000000000001,1.0
2.114562374831327e-06,4.2587078168233926e-15,2.9010321518489113e-09,0.0030966811502052974,247.0,64.0,9.792000000000002,1.0
1.985145232683105e-06,3.8883143397210764e-15,2.8620124888718603e-09,0.0030330609502827563,247.0,63.0,10.064000000000002,1.0
1.8574185281181468e-06,3.5272492702229345e-15,2.826856535036605e-09,0.002973536752649215,247.0,62.0,10.336,1.0
1.7313822611364676e-06,3.1748948427833526e-15,2.79565902638802e-09,0.002918055415566561,247.0,61.0,10.608,1.0
1.6070364317380526e-06,2.8306409457566162e-15,2.768519850583139e-09,0.002866563797296679,247.0,60.0,10.88,1.0
1.4843810399229018e-06,2.4938851213969055e-15,2.745544401889991e-09,0.0028190087561014575,247.0,59.0,11.152,1.0
1.3634160856910033e-06,2.1640325658582977e-15,2.7268439659494832e-09,0.002775337150242782,247.0,58.0,11.424,1.0
1.2441415690423497e-06,1.8404961291947715e-15,2.7125361372586076e-09,0.0027354958379825407,247.0,57.0,11.696,1.0
1.1265574899769566e-06,1.522696315360198e-15,2.7027452726642737e-09,0.00269943167758262,247.0,56.0,11.968,1.0
1.0106638484948615e-06,1.2100612822083478e-15,2.697602984544674e-09,0.0026670915273049054,247.0,55.0,12.24,1.0
8.964606445960568e-07,9.020268414928894e-16,2.6972486777902257e-09,0.002638422245411283,247.0,54.0,12.512,1.0
7.839478782804327e-07,5.98036458867387e-16,2.7018301351931875e-09,0.0026133706901636414,247.0,53.0,12.784,1.0
6.731255495481182e-07,2.97541253885304e-16,2.711504156422425e-09,0.002591883719823866,247.0,52.0,13.056000000000001,1.0
5.639936583990676e-07,0.0,2.726437256355495e-09,0.0025739081926538436,247.0,51.0,13.328000000000001,1.0
1.509181315852112e-05,4.802357776144388e-14,3.1820946401214137e-09,0.01520093316861523,367.0,99.0,0.272,1.0
1.4730526147028823e-05,4.620405181584997e-14,5.036234040294864e-09,0.014763978502937796,367.0,98.0,0.544,1.0
1.4372245078023983e-05,4.4436600784866086e-14,4.933140999866805e-09,0.014337544182987742,367.0,97.0,0.8160000000000001,1.0
1.4016969951506147e-05,4.272000508982659e-14,4.831736214872104e-09,0.013921545115912834,367.0,96.0,1.088,1.0
1.3664700767475559e-05,4.105305371921845e-14,4.732038583492421e-09,0.013515896208860834,367.0,95.0,1.36,1.0
1.3315437525931916e-05,3.943454422868123e-14,4.634067654482831e-09,0.013120512368979508,367.0,94.0,1.6320000000000001,1.0
1.296918022687555e-05,3.7863282741007023e-14,4.537843655444303e-09,0.012735308503416611,367.0,93.0,1.9040000000000001,1.0
1.2625928870306279e-05,3.633808394614051e-14,4.443387522515767e-09,0.012360199519319912,367.0,92.0,2.176,1.0
1.2285683456224075e-05,3.485777110117896e-14,4.350720931697575e-09,0.011995100323837172,367.0,91.0,2.4480000000000004,1.0
1.1948443984629089e-05,3.342117603037219e-14,4.259866331815621e-09,0.011639925824116153,367.0,90.0,2.72,1.0
1.1614210455521241e-05,3.202713912512259e-14,4.170846979268134e-09,0.011294590927304615,367.0,89.0,2.992,1.0
1.1282982868900506e-05,3.067450934398514e-14,4.083686974678997e-09,0.010959010540550323,367.0,88.0,3.2640000000000002,1.0
1.0954761224766897e-05,2.936214421266736e-14,3.998411301551927e-09,0.010633099571001038,367.0,87.0,3.5360000000000005,1.0
1.0629545523120337e-05,2.8088909824029373e-14,3.915045867071079e-09,0.010316772925804525,367.0,86.0,3.8080000000000003,1.0
1.03073357639611e-05,2.6853680838083848e-14,3.83361754519382e-09,0.010009945512108544,367.0,85.0,4.08,1.0
9.98813194728873e-06,2.5655340481996033e-14,3.754154222152645e-09,0.009712532237060862,367.0,84.0,4.352,1.0
9.671934073103747e-06,2.449278055008375e-14,3.676684844605113e-09,0.009424448007809233,367.0,83.0,4.6240000000000006,1.0
9.358742141405798e-06,2.336490140381738e-14,3.6012394704794953e-09,0.009145607731501425,367.0,82.0,4.896000000000001,1.0
9.048556152194975e-06,2.22706119718199e-14,3.527849322858112e-09,0.0088759263152852,367.0,81.0,5.168,1.0
8.741376105471277e-06,2.120882974986684e-14,3.4565468469640323e-09,0.008615318666308321,367.0,80.0,5.44,1.0
8.437202001234691e-06,2.017848080088629e-14,3.3873657705560193e-09,0.00836369969171855,367.0,79.0,5.712,1.0
8.136033839485352e-06,1.9178499754958925e-14,3.32034116793409e-09,0.008120984298663645,367.0,78.0,5.984,1.0
7.837871620222971e-06,1.8207829809317995e-14,3.255509527807572e-09,0.007887087394291377,367.0,77.0,6.256,1.0
7.542715343447854e-06,1.7265422728349312e-14,3.1929088253363287e-09,0.007661923885749501,367.0,76.0,6.5280000000000005,1.0
7.250565009159802e-06,1.6350238843591254e-14,3.1325785985776513e-09,0.007445408680185783,367.0,75.0,6.800000000000001,1.0
6.961420617358937e-06,1.5461247053734795e-14,3.0745600297470396e-09,0.007237456684747985,367.0,74.0,7.072000000000001,1.0
