dI/dz, Integral_trapz, Conc.(mol/cm^3), D(cm^2/sec), Time(sec), Position(element), depth(μm), crystal
9.285329316024972e-07,7.210538978823099e-15,7.76551776831316e-09,0.0016433084237859003,7.0,99.0,0.272,1.0
9.034372821694432e-07,6.963346001426555e-15,9.850033092626824e-09,0.0016106198757960472,7.0,98.0,0.544,1.0
8.786052557282161e-07,6.7224624841903356e-15,9.700517910060527e-09,0.0015788018641254018,7.0,97.0,0.8160000000000001,1.0
8.540368522788312e-07,6.4877285610984514e-15,9.554301058897724e-09,0.0015478454262817065,7.0,96.0,1.088,1.0
8.29732071821279e-07,6.2589859217700685e-15,9.4114258603519e-09,0.0015177415997727041,7.0,95.0,1.36,1.0
8.056909143555101e-07,6.036077811459499e-15,9.271937535784583e-09,0.0014884814221061392,7.0,94.0,1.6320000000000001,1.0
7.81913379881608e-07,5.818849031056212e-15,9.135883312111859e-09,0.0014600559307897528,7.0,93.0,1.9040000000000001,1.0
7.583994683995215e-07,5.607145937084828e-15,9.003312534057325e-09,0.0014324561633312892,7.0,92.0,2.176,1.0
7.351491799092393e-07,5.400816441705118e-15,8.874276784391234e-09,0.0014056731572384914,7.0,91.0,2.4480000000000004,1.0
7.12162514410805e-07,5.199710012712008e-15,8.748830012200236e-09,0.0013796979500191023,7.0,90.0,2.72,1.0
6.894394719041861e-07,5.003677673535572e-15,8.627028670097116e-09,0.0013545215791808645,7.0,89.0,2.992,1.0
6.669800523893999e-07,4.812572003241041e-15,8.508931861249378e-09,0.0013301350822315216,7.0,88.0,3.2640000000000002,1.0
6.447842558664276e-07,4.626247136528792e-15,8.39460149670256e-09,0.0013065294966788166,7.0,87.0,3.5360000000000005,1.0
6.228520823352801e-07,4.444558763734362e-15,8.284102464190416e-09,0.0012836958600304924,7.0,86.0,3.8080000000000003,1.0
6.011835317959788e-07,4.267364130828432e-15,8.177502809176989e-09,0.0012616252097942917,7.0,85.0,4.08,1.0
5.797786042484721e-07,4.094522039416842e-15,8.074873929284676e-09,0.0012403085834779583,7.0,84.0,4.352,1.0
5.58637299692798e-07,3.9258928467405804e-15,7.976290783389895e-09,0.0012197370185892352,7.0,83.0,4.6240000000000006,1.0
5.377596181289757e-07,3.7613384656757856e-15,7.881832116356317e-09,0.0011999015526358645,7.0,82.0,4.896000000000001,1.0
5.171455595569538e-07,3.600722364733756e-15,7.791580701144573e-09,0.00118079322312559,7.0,81.0,5.168,1.0
4.967951239767568e-07,3.443909568060935e-15,7.705623599792405e-09,0.0011624030675661547,7.0,80.0,5.44,1.0
4.7670831138838695e-07,3.290766655438921e-15,7.624052444770793e-09,0.001144722123465302,7.0,79.0,5.712,1.0
4.5688512179184594e-07,3.1411617622844623e-15,7.54696374293688e-09,0.001127741428330774,7.0,78.0,5.984,1.0
4.373255551871338e-07,2.9949645796494634e-15,7.474459204008043e-09,0.0011114520196703144,7.0,77.0,6.256,1.0
4.180296115742335e-07,2.8520463542209767e-15,7.406646095966961e-09,0.0010958449349916665,7.0,76.0,6.5280000000000005,1.0
3.989972909531734e-07,2.71227988832121e-15,7.343637630038077e-09,0.0010809112118025726,7.0,75.0,6.800000000000001,1.0
3.802285933239232e-07,2.575539539907523e-15,7.285553378012914e-09,0.0010666418876107762,7.0,74.0,7.072000000000001,1.0
3.6172351868651707e-07,2.441701222572424e-15,7.232519725403248e-09,0.00105302799992402,7.0,73.0,7.344,1.0
3.4348206704091893e-07,2.3106424055435772e-15,7.184670363691852e-09,0.0010400605862500478,7.0,72.0,7.6160000000000005,1.0
3.2550423838714966e-07,2.1822421136837976e-15,7.142146826105109e-09,0.0010277306840966022,7.0,71.0,7.888000000000001,1.0
3.0779003272521885e-07,2.056380927491053e-15,7.105099071037087e-09,0.0010160293309714257,7.0,70.0,8.16,1.0
2.9033945005509024e-07,1.932940983098462e-15,7.0736861184521936e-09,0.0010049475643822622,7.0,69.0,8.432,1.0
2.7315249037680574e-07,1.8118059722742963e-15,7.048076744906669e-09,0.0009944764218368543,7.0,68.0,8.704,1.0
2.562291536903292e-07,1.6928611424219805e-15,7.028450243347392e-09,0.0009846069408429453,7.0,67.0,8.976,1.0
2.3956943999569866e-07,1.5759932965800904e-15,7.01499725529838e-09,0.000975330158908278,7.0,66.0,9.248000000000001,1.0
2.231733492928742e-07,1.4610907934223534e-15,7.007920683065219e-09,0.0009666371135405956,7.0,65.0,9.520000000000001,1.0
2.070408815818824e-07,1.3480435472576502e-15,7.007436691640117e-09,0.0009585188422476411,7.0,64.0,9.792000000000002,1.0
1.9117203686272332e-07,1.2367430280300125e-15,7.013775810236525e-09,0.0009509663825371575,7.0,63.0,10.064000000000002,1.0
1.755668151353741e-07,1.1270822613186253e-15,7.027184145624737e-09,0.0009439707719168881,7.0,62.0,10.336,1.0
1.6022521639985946e-07,1.0189558283378256e-15,7.047924720550494e-09,0.0009375230478945756,7.0,61.0,10.608,1.0
1.4514724065616232e-07,9.12259865937102e-16,7.0762789524531716e-09,0.0009316142479779632,7.0,60.0,10.88,1.0
1.3033288790430735e-07,8.068920666010956e-16,7.112548290225699e-09,0.000926235409674794,7.0,59.0,11.152,1.0
1.1578215814426225e-07,7.027516784495998e-16,7.157056028726145e-09,0.0009213775704928109,7.0,58.0,11.424,1.0
1.0149505137604034e-07,5.997395052375597e-16,7.210149324366003e-09,0.0009170317679397571,7.0,57.0,11.696,1.0
8.74715675996511e-08,4.977579063550727e-16,7.272201437861619e-09,0.0009131890395233756,7.0,56.0,11.968,1.0
7.371170681507935e-08,3.9671079682738864e-16,7.343614234889882e-09,0.0009098404227514097,7.0,55.0,12.24,1.0
6.021546902234789e-08,2.965036473149093e-16,7.4248209798472055e-09,0.0009069769551316018,7.0,54.0,12.512,1.0
4.69828542214206e-08,1.970434841131886e-16,7.51628946342116e-09,0.0009045896741716957,7.0,53.0,12.784,1.0
3.4013862412335485e-08,9.823888915293273e-17,7.618525511832054e-09,0.000902669617379434,7.0,52.0,13.056000000000001,1.0
2.1308493595067866e-08,0.0,7.732076932660008e-09,0.0009012078222625596,7.0,51.0,13.328000000000001,1.0
2.7283131092845258e-06,1.8755798979604326e-14,6.874503852134059e-09,0.004015794858948085,127.0,99.0,0.272,1.0
2.6608048016849404e-06,1.8127296606605336e-14,9.31000043323335e-09,0.003926120699288278,127.0,98.0,0.544,1.0
2.5939137958219316e-06,1.751389497891219e-14,9.170166000334578e-09,0.0038386521269653945,127.0,97.0,0.8160000000000001,1.0
2.527640091695552e-06,1.6915237527832658e-14,9.033106855442002e-09,0.0037533697165524097,127.0,96.0,1.088,1.0
2.4619836893056695e-06,1.6330970490134036e-14,8.89885854892128e-09,0.003670254042622308,127.0,95.0,1.36,1.0
2.39694458865234e-06,1.576074290804319e-14,8.76745798085778e-09,0.003589285679748067,127.0,94.0,1.6320000000000001,1.0
2.332522789735572e-06,1.5204206629246552e-14,8.638943465637674e-09,0.003510445202502669,127.0,93.0,1.9040000000000001,1.0
2.2687182925554332e-06,1.4661016306890092e-14,8.513354800412815e-09,0.0034337131854590896,127.0,92.0,2.176,1.0
2.205531097111734e-06,1.4130829399579346e-14,8.390733337471076e-09,0.003359070203190314,127.0,91.0,2.4480000000000004,1.0
2.1429612034046645e-06,1.3613306171379405e-14,8.271122061079466e-09,0.0032864968302693193,127.0,90.0,2.72,1.0
2.0810086114341604e-06,1.3108109691814913e-14,8.154565668616691e-09,0.0032159736412690847,127.0,89.0,2.992,1.0
2.01967332120019e-06,1.2614905835870073e-14,8.041110656906618e-09,0.003147481210762592,127.0,88.0,3.2640000000000002,1.0
1.9589553327027582e-06,1.2133363283988645e-14,7.930805413650969e-09,0.003081000113322821,127.0,87.0,3.5360000000000005,1.0
1.8988546459419064e-06,1.1663153522073943e-14,7.823700314535924e-09,0.003016510923522752,127.0,86.0,3.8080000000000003,1.0
1.8393712609176463e-06,1.1203950841488845e-14,7.719847826377304e-09,0.002953994215935362,127.0,85.0,4.08,1.0
1.78050517762986e-06,1.075543233905577e-14,7.619302616760554e-09,0.002893430565133636,127.0,84.0,4.352,1.0
1.7222563960787146e-06,1.0317277917056708e-14,7.522121670722672e-09,0.002834800545690549,127.0,83.0,4.6240000000000006,1.0
1.6646249162640844e-06,9.889170283233196e-15,7.42836441473491e-09,0.0027780847321790835,127.0,82.0,4.896000000000001,1.0
1.6076107381860345e-06,9.470794950786332e-15,7.338092849012515e-09,0.002723263699172219,127.0,81.0,5.168,1.0
1.5512138618445116e-06,9.061840238376765e-15,7.251371688266151e-09,0.002670318021242936,127.0,80.0,5.44,1.0
1.49543428723955e-06,8.661997270124709e-15,7.168268511974084e-09,0.0026192282729642145,127.0,79.0,5.712,1.0
1.4402720143711757e-06,8.270959975609929e-15,7.0888539246353416e-09,0.002569975028909033,127.0,78.0,5.984,1.0
1.3857270432393513e-06,7.888425089871739e-15,7.013201726950758e-09,0.0025225388636503725,127.0,77.0,6.256,1.0
1.3317993738440576e-06,7.514092153409022e-15,6.941389098772823e-09,0.0024769003517612137,127.0,76.0,6.5280000000000005,1.0
1.278489006185348e-06,7.147663512180214e-15,6.873496794744832e-09,0.0024330400678145353,127.0,75.0,6.800000000000001,1.0
1.2257959402631804e-06,6.7888443176032995e-15,6.8096093536656664e-09,0.002390938586383318,127.0,74.0,7.072000000000001,1.0
1.1737201760775929e-06,6.437342526555828e-15,6.749815322820613e-09,0.0023505764820405412,127.0,73.0,7.344,1.0
1.122261713628536e-06,6.092868901374901e-15,6.6942074983672756e-09,0.0023119343293591856,127.0,72.0,7.6160000000000005,1.0
1.071420552916052e-06,5.755137009857177e-15,6.642883183325777e-09,0.0022749927029122306,127.0,71.0,7.888000000000001,1.0
1.0211966939401289e-06,5.42386322525887e-15,6.5959444645047465e-09,0.0022397321772726565,127.0,70.0,8.16,1.0
9.71590136700744e-07,5.0987667262957526e-15,6.5534985101729345e-09,0.0022061333270134435,127.0,69.0,8.432,1.0
9.226008811979469e-07,4.779569497143151e-15,6.515657890215887e-09,0.0021741767267075703,127.0,68.0,8.704,1.0
8.742289274316768e-07,4.46599632743595e-15,6.482540920765054e-09,0.0021438429509280186,127.0,67.0,8.976,1.0
8.264742754020021e-07,4.157774812268591e-15,6.454272035650684e-09,0.0021151125742477662,127.0,66.0,9.248000000000001,1.0
7.793369251088275e-07,3.854635352195064e-15,6.430982186909679e-09,0.002087966171239796,127.0,65.0,9.520000000000001,1.0
7.328168765522674e-07,3.5563111532289254e-15,6.4128092773469265e-09,0.0020623843164770854,127.0,64.0,9.792000000000002,1.0
6.869141297322379e-07,3.2625382268432834e-15,6.399898627797481e-09,0.0020383475845326157,127.0,63.0,10.064000000000002,1.0
6.416286846487735e-07,2.9730553899708018e-15,6.3924034828175635e-09,0.002015836549979366,127.0,62.0,10.336,1.0
5.969605413018586e-07,2.687604265003703e-15,6.390485558133551e-09,0.001994831787390317,127.0,61.0,10.608,1.0
5.529096996915011e-07,2.4059292797937623e-15,6.394315634226429e-09,0.0019753138713384487,127.0,60.0,10.88,1.0
5.0947615981772e-07,2.127777667652314e-15,6.4040742004856835e-09,0.0019572633763967405,127.0,59.0,11.152,1.0
4.666599216804848e-07,1.8528994673502473e-15,6.419952155091802e-09,0.0019406608771381727,127.0,58.0,11.424,1.0
4.2446098527979166e-07,1.5810475231180084e-15,6.442151566354969e-09,0.0019254869481357257,127.0,57.0,11.696,1.0
3.8287935061567106e-07,1.3119774846455986e-15,6.470886501837823e-09,0.001911722163962379,127.0,56.0,11.968,1.0
3.4191501768810395e-07,1.0454478070825769e-15,6.5063839324394226e-09,0.0018993470991911126,127.0,55.0,12.24,1.0
3.015679864971209e-07,7.812197510380574e-16,6.548884719517367e-09,0.0018883423283949058,127.0,54.0,12.512,1.0
2.6183825704265324e-07,5.190573825807108e-16,6.598644693963957e-09,0.0018786884261467395,127.0,53.0,12.784,1.0
2.2272582932476193e-07,2.5872757323876396e-16,6.655935837571734e-09,0.001870365967019594,127.0,52.0,13.056000000000001,1.0
1.8423070334343558e-07,0.0,6.721047577926371e-09,0.0018633555255864482,127.0,51.0,13.328000000000001,1.0
5.869828876658401e-06,3.397971664306799e-14,5.788876874790956e-09,0.00805886894610838,247.0,99.0,0.272,1.0
5.734452521260228e-06,3.290694468828476e-14,7.924367232578879e-09,0.007884832240188914,247.0,98.0,0.544,1.0
5.6001045213722335e-06,3.185655621882269e-14,7.818415386442464e-09,0.007714768222401362,247.0,97.0,0.8160000000000001,1.0
5.4667848769945536e-06,3.082807854794991e-14,7.714374544528637e-09,0.007548649027080749,247.0,96.0,1.088,1.0
5.334493588126731e-06,2.982104125204205e-14,7.612272164904424e-09,0.007386446788562111,247.0,95.0,1.36,1.0
5.203230654769101e-06,2.8834976170582237e-14,7.512136566179341e-09,0.007228133641180476,247.0,94.0,1.6320000000000001,1.0
5.0729960769216025e-06,2.7869417406161114e-14,7.413996961327501e-09,0.007073681719270874,247.0,93.0,1.9040000000000001,1.0
4.943789854584297e-06,2.692390132447684e-14,7.317883493380903e-09,0.006923063157168332,247.0,92.0,2.176,1.0
4.815611987756924e-06,2.5997966554335076e-14,7.223827272681933e-09,0.006776250089207886,247.0,91.0,2.4480000000000004,1.0
4.688462476439775e-06,2.509115398764898e-14,7.131860416075317e-09,0.0066332146497245625,247.0,90.0,2.72,1.0
4.562341320632743e-06,2.420300677943923e-14,7.0420160878372716e-09,0.006493928973053393,247.0,89.0,2.992,1.0
4.437248520335819e-06,2.3333070347834013e-14,6.954328542812286e-09,0.006358365193529404,247.0,88.0,3.2640000000000002,1.0
4.3131840755489896e-06,2.2480892374069012e-14,6.868833171576536e-09,0.006226495445487628,247.0,87.0,3.5360000000000005,1.0
4.1901479862722535e-06,2.1646022802487437e-14,6.785566547907448e-09,0.006098291863263097,247.0,86.0,3.8080000000000003,1.0
4.068140252505733e-06,2.0828013840539978e-14,6.704566478653211e-09,0.005973726581190835,247.0,85.0,4.08,1.0
3.947160874249161e-06,2.0026419958784853e-14,6.625872056104569e-09,0.00585277173360588,247.0,84.0,4.352,1.0
3.82720985150285e-06,1.9240797890887786e-14,6.549523713179265e-09,0.005735399454843256,247.0,83.0,4.6240000000000006,1.0
3.708287184266618e-06,1.8470706633621995e-14,6.475563281271293e-09,0.0056215818792379945,247.0,82.0,4.896000000000001,1.0
3.590392872540472e-06,1.7715707446868226e-14,6.40403405134203e-09,0.005511291141125126,247.0,81.0,5.168,1.0
3.473526916324442e-06,1.697536385361472e-14,6.334980838089069e-09,0.005404499374839681,247.0,80.0,5.44,1.0
3.3576893156184987e-06,1.6249241639957216e-14,6.268450047586726e-09,0.00530117871471669,247.0,79.0,5.712,1.0
3.2428800704227328e-06,1.553690885509899e-14,6.204489748570316e-09,0.00520130129509118,247.0,78.0,5.984,1.0
3.12909918073706e-06,1.4837935811350792e-14,6.14314974754686e-09,0.005104839250298183,247.0,77.0,6.256,1.0
3.0163466465614882e-06,1.4151895084130908e-14,6.08448166807162e-09,0.005011764714672729,247.0,76.0,6.5280000000000005,1.0
2.904622467896026e-06,1.3478361511965109e-14,6.028539034353284e-09,0.004922049822549849,247.0,75.0,6.800000000000001,1.0
2.793926644740703e-06,1.281691219648668e-14,5.975377359544218e-09,0.004835666708264571,247.0,74.0,7.072000000000001,1.0
2.684259177095466e-06,1.2167126502436427e-14,5.925054238985838e-09,0.004752587506151926,247.0,73.0,7.344,1.0
2.575620064960368e-06,1.152858605766265e-14,5.877629448772739e-09,0.004672784350546943,247.0,72.0,7.6160000000000005,1.0
2.4680093083353643e-06,1.0900874753121163e-14,5.833165049929937e-09,0.004596229375784654,247.0,71.0,7.888000000000001,1.0
2.3614269072204914e-06,1.0283578742875279e-14,5.791725498664378e-09,0.0045228947162000875,247.0,70.0,8.16,1.0
2.2558728616156595e-06,9.676286444095827e-15,5.7533777630182354e-09,0.0044527525061282755,247.0,69.0,8.432,1.0
2.151347171521119e-06,9.07858853706114e-15,5.718191446467226e-09,0.004385774879904243,247.0,68.0,8.704,1.0
2.047849836936505e-06,8.490077965157059e-15,5.68623891877087e-09,0.004321933971863025,247.0,67.0,8.976,1.0
1.945380857862106e-06,7.91034993487693e-15,5.6575954549055055e-09,0.004261201916339651,247.0,66.0,9.248000000000001,1.0
1.8439402342977705e-06,7.339001915821614e-15,5.632339382189997e-09,0.004203550847669148,247.0,65.0,9.520000000000001,1.0
1.743527966243597e-06,6.775633640699475e-15,5.610552236686811e-09,0.004148952900186549,247.0,64.0,9.792000000000002,1.0
1.6441440536995095e-06,6.219847105326382e-15,5.5923189291480345e-09,0.004097380208226882,247.0,63.0,10.064000000000002,1.0
1.545788496665531e-06,5.671246568625716e-15,5.577727921475173e-09,0.004048804906125179,247.0,62.0,10.336,1.0
1.4484612951416689e-06,5.129438552628361e-15,5.56687141430361e-09,0.0040031991282164685,247.0,61.0,10.608,1.0
1.3521624491279312e-06,4.594031842472713e-15,5.55984554663582e-09,0.0039605350088357805,247.0,60.0,10.88,1.0
1.2568919586243097e-06,4.064637486404674e-15,5.556750608394472e-09,0.003920784682318146,247.0,59.0,11.152,1.0
1.1626498236308048e-06,3.540868795777655e-15,5.557691266895824e-09,0.003883920282998593,247.0,58.0,11.424,1.0
1.0694360441473858e-06,3.022341345052569e-15,5.562776808307855e-09,0.003849913945212154,247.0,57.0,11.696,1.0
9.772506201740834e-07,2.5086729717978436e-15,5.572121395281405e-09,0.0038187378032938585,247.0,56.0,11.968,1.0
8.860935517109203e-07,1.99948377668941e-15,5.585844342001837e-09,0.0037903639915787355,247.0,55.0,12.24,1.0
7.959648387579193e-07,1.4943961235107074e-15,5.604070408085022e-09,0.0037647646444018135,247.0,54.0,12.512,1.0
7.068644813149207e-07,9.93034639152684e-16,5.626930112808654e-09,0.0037419118960981264,247.0,53.0,12.784,1.0
6.18792479382092e-07,4.950262136137941e-16,5.654560071414226e-09,0.0037217778810027017,247.0,52.0,13.056000000000001,1.0
5.317488329593491e-07,0.0,5.687103355133032e-09,0.0037043347334505716,247.0,51.0,13.328000000000001,1.0
9.927565527178652e-06,5.507822569951925e-14,5.548009282712044e-09,0.014034547396695945,367.0,99.0,0.272,1.0
9.713829710052328e-06,5.348917225990939e-14,7.43466144783159e-09,0.013761873203635889,367.0,98.0,0.544,1.0
9.501348690900026e-06,5.192632199252619e-14,7.355246476218078e-09,0.013494997709210498,367.0,97.0,0.8160000000000001,1.0
9.290122469721407e-06,5.038918554797862e-14,7.277204676438945e-09,0.013233891074559592,367.0,96.0,1.088,1.0
9.080151046516624e-06,4.887727410595461e-14,7.200558147141096e-09,0.012978523460822972,367.0,95.0,1.36,1.0
8.871434421285495e-06,4.7390099375221174e-14,7.125329518367599e-09,0.012728865029140456,367.0,94.0,1.6320000000000001,1.0
8.663972594028353e-06,4.592717359362434e-14,7.051541967687337e-09,0.012484885940651844,367.0,93.0,1.9040000000000001,1.0
8.457765564744926e-06,4.4488009528089176e-14,6.979219236784918e-09,0.01224655635649695,367.0,92.0,2.176,1.0
8.252813333435122e-06,4.307212047461976e-14,6.908385648796225e-09,0.01201384643781559,367.0,91.0,2.4480000000000004,1.0
8.049115900099307e-06,4.167902025829927e-14,6.839066126198222e-09,0.011786726345747562,367.0,90.0,2.72,1.0
7.846673264737266e-06,4.0308223233289784e-14,6.771286209340244e-09,0.01156516624143268,367.0,89.0,2.992,1.0
7.645485427348971e-06,3.8959244282832524e-14,6.705072075772228e-09,0.011349136286010753,367.0,88.0,3.2640000000000002,1.0
7.4455523879344515e-06,3.763159881924771e-14,6.640450560210893e-09,0.011138606640621593,367.0,87.0,3.5360000000000005,1.0
7.246874146493676e-06,3.6324802783934586e-14,6.577449175292161e-09,0.010933547466405008,367.0,86.0,3.8080000000000003,1.0
7.0494507030268895e-06,3.503837264737144e-14,6.516096133130026e-09,0.010733928924500804,367.0,85.0,4.08,1.0
6.853282057533573e-06,3.377182540911559e-14,6.456420367642315e-09,0.010539721176048799,367.0,84.0,4.352,1.0
6.658368210014291e-06,3.252467859780336e-14,6.398451557880509e-09,0.010350894382188794,367.0,83.0,4.6240000000000006,1.0
6.464709160468846e-06,3.129645027115013e-14,6.342220152046154e-09,0.010167418704060599,367.0,82.0,4.896000000000001,1.0
6.272304908896977e-06,3.0086659015950316e-14,6.287757392657815e-09,0.009989264302804028,367.0,81.0,5.168,1.0
6.081155455299066e-06,2.889482394807736e-14,6.235095342621399e-09,0.009816401339558887,367.0,80.0,5.44,1.0
5.891260799674733e-06,2.7720464712483726e-14,6.184266912265591e-09,0.009648799975464991,367.0,79.0,5.712,1.0
5.702620942024464e-06,2.6563101483200894e-14,6.1353058876270886e-09,0.00948643037166214,367.0,78.0,5.984,1.0
5.515235882347789e-06,2.5422254963339417e-14,6.088246959656001e-09,0.009329262689290152,367.0,77.0,6.256,1.0
5.3291056206450545e-06,2.4297446385088838e-14,6.04312575483826e-09,0.009177267089488829,367.0,76.0,6.5280000000000005,1.0
5.144230156915929e-06,2.318819750971776e-14,5.999978866835034e-09,0.009030413733397987,367.0,75.0,6.800000000000001,1.0
4.960609491160776e-06,2.2094030627573797e-14,5.958843889624973e-09,0.008888672782157431,367.0,74.0,7.072000000000001,1.0
