dI/dz, Integral_trapz, Conc.(mol/cm^3), D(cm^2/sec), Time(sec), Position(element), depth(μm), crystal
8.278367441901854e-07,7.137037636406647e-15,8.621310525891563e-09,0.002000194064120432,17.0,1.0,0.6188000000000001,3.0
8.039071497698541e-07,6.908463752118637e-15,8.593609043154325e-09,0.0019537483801081446,17.0,2.0,1.2376000000000003,3.0
7.803373094584474e-07,6.6851747667700544e-15,8.567032084380987e-09,0.001908657984401031,17.0,3.0,1.8564000000000005,3.0
7.571272232559387e-07,6.467022540944578e-15,8.54152689574929e-09,0.0018649022241795286,17.0,4.0,2.4752000000000005,3.0
7.342768911623496e-07,6.253861172671406e-15,8.517033898168353e-09,0.0018224604466240742,17.0,5.0,3.0940000000000003,3.0
7.117863131776918e-07,6.045546997425276e-15,8.49348587560724e-09,0.0017813119989151045,17.0,6.0,3.712800000000001,3.0
6.896554893019435e-07,5.841938588126431e-15,8.470807060550671e-09,0.0017414362282330567,17.0,7.0,4.331600000000001,3.0
6.678844195351466e-07,5.6428967551406744e-15,8.448912102288865e-09,0.0017028124817583654,17.0,8.0,4.950400000000001,3.0
6.464731038772093e-07,5.448284546279285e-15,8.427704901570242e-09,0.0016654201066714708,17.0,9.0,5.5692,3.0
6.254215423282198e-07,5.2579672467991135e-15,8.40707729258188e-09,0.0016292384501528086,17.0,10.0,6.188000000000001,3.0
6.047297348881568e-07,5.07181237940251e-15,8.386907550263803e-09,0.0015942468593828148,17.0,11.0,6.8068,3.0
5.843976815570083e-07,4.889689704237363e-15,8.367058697443466e-09,0.0015604246815419263,17.0,12.0,7.425600000000002,3.0
5.644253823347726e-07,4.711471218897092e-15,8.34737658219385e-09,0.0015277512638105803,17.0,13.0,8.044400000000001,3.0
5.448128372214567e-07,4.537031158420623e-15,8.327687690986623e-09,0.0014962059533692137,17.0,14.0,8.663200000000002,3.0
5.255600462170888e-07,4.366245995292424e-15,8.30779665752768e-09,0.0014657680973982617,17.0,15.0,9.282000000000002,3.0
5.06667009321577e-07,4.198994439442496e-15,8.287483420451857e-09,0.0014364170430781647,17.0,16.0,9.900800000000002,3.0
4.881337265350332e-07,4.035157438246338e-15,8.266499975097984e-09,0.001408132137589356,17.0,17.0,10.519600000000002,3.0
4.699601978573824e-07,3.874618176525005e-15,8.244566655197522e-09,0.0013808927281122748,17.0,18.0,11.1384,3.0
4.521464232886745e-07,3.717262076545053e-15,8.22136786908022e-09,0.001354678161827356,17.0,19.0,11.757200000000001,3.0
4.3469240282885955e-07,3.562976798018588e-15,8.196547201726341e-09,0.001329467785915038,17.0,20.0,12.376000000000001,3.0
4.1759813647797926e-07,3.411652238103229e-15,8.16970177807087e-09,0.001305240947555757,17.0,21.0,12.9948,3.0
4.008636242360085e-07,3.2631805314021137e-15,8.140375764005257e-09,0.0012819769939299496,17.0,22.0,13.6136,3.0
3.844888661029658e-07,3.117456049963925e-15,8.108052858750592e-09,0.001259655272218053,17.0,23.0,14.2324,3.0
3.684738620788376e-07,2.974375403282856e-15,8.072147604994753e-09,0.0012382551296005032,17.0,24.0,14.851200000000004,3.0
3.52818612163619e-07,2.833837438298637e-15,8.031995310339381e-09,0.0012177559132577384,17.0,25.0,15.470000000000004,3.0
3.3752311635734345e-07,2.6957432393965124e-15,7.986840334048313e-09,0.001198136970370194,17.0,26.0,16.088800000000003,3.0
3.225873746599608e-07,2.5599961284072647e-15,7.935822445332077e-09,0.0011793776481183076,17.0,27.0,16.707600000000003,3.0
3.080113870714977e-07,2.426501664607194e-15,7.877960901633608e-09,0.0011614572936825165,17.0,28.0,17.326400000000003,3.0
2.9379515359196924e-07,2.2951676447181386e-15,7.812135825445678e-09,0.0011443552542432566,17.0,29.0,17.945200000000003,3.0
2.799386742213571e-07,2.165904102907441e-15,7.737066373311416e-09,0.0011280508769809644,17.0,30.0,18.564000000000004,3.0
2.664419489596462e-07,2.038623310787992e-15,7.651285087607397e-09,0.001112523509076078,17.0,31.0,19.182800000000004,3.0
2.533049778068716e-07,1.9132397774181923e-15,7.553107696434264e-09,0.0010977524977090335,17.0,32.0,19.801600000000004,3.0
2.405277607630049e-07,1.789670249301983e-15,7.44059747458992e-09,0.001083717190060268,17.0,33.0,20.4204,3.0
2.2811029782807123e-07,1.6678337103888219e-15,7.311523093297099e-09,0.0010703969333102172,17.0,34.0,21.039200000000005,3.0
2.1605258900203542e-07,1.547651382073696e-15,7.163308661203387e-09,0.0010577710746393198,17.0,35.0,21.658,3.0
2.043546342849326e-07,1.4290467231971164e-15,6.992974385912825e-09,0.0010458189612280113,17.0,36.0,22.2768,3.0
1.9301643367674104e-07,1.3119454300451203e-15,6.797065954717269e-09,0.0010345199402567288,17.0,37.0,22.895600000000005,3.0
1.8203798717747578e-07,1.1962754363492744e-15,6.571570334838848e-09,0.001023853358905909,17.0,38.0,23.514400000000002,3.0
1.7141929478712513e-07,1.0819669132866695e-15,6.311815216777647e-09,0.0010137985643559888,17.0,39.0,24.133200000000002,3.0
1.611603565056824e-07,9.68952269479923e-16,6.012348759266727e-09,0.0010043349037874058,17.0,40.0,24.752000000000002,3.0
1.5126117233317597e-07,8.571661509971764e-16,5.666795634170653e-09,0.0009954417243805958,17.0,41.0,25.370800000000006,3.0
1.4172174226957913e-07,7.465454413521003e-16,5.267684614912809e-09,0.000987098373315996,17.0,42.0,25.9896,3.0
1.3254206631490189e-07,6.370292615038875e-16,4.806242117807284e-09,0.0009792841977740428,17.0,43.0,26.608400000000003,3.0
1.2372214446914094e-07,5.285589698572616e-16,4.272145234187207e-09,0.0009719785449351739,17.0,44.0,27.2272,3.0
1.3596274563102654e-06,2.6181123598259355e-14,1.92561009832129e-08,0.0035515178678804785,137.0,1.0,0.6188000000000001,3.0
1.320047415913787e-06,2.5248601577394732e-14,1.9127041402461054e-08,0.003459859317319898,137.0,2.0,1.2376000000000003,3.0
1.2810466359279972e-06,2.4343241772213186e-14,1.900261949056898e-08,0.003370925765876209,137.0,3.0,1.8564000000000005,3.0
1.2426251163528197e-06,2.346421454075831e-14,1.8882778266728753e-08,0.003284677263761324,137.0,4.0,2.4752000000000005,3.0
1.2047828571883141e-06,2.261070201228027e-14,1.8767449982686875e-08,0.0032010738611871494,137.0,5.0,3.0940000000000003,3.0
1.1675198584344708e-06,2.1781898087235967e-14,1.865655468716682e-08,0.0031200756083655935,137.0,6.0,3.712800000000001,3.0
1.130836120091286e-06,2.0977008437288926e-14,1.8549998593603085e-08,0.0030416425555085647,137.0,7.0,4.331600000000001,3.0
1.09473164215879e-06,2.0195250505309313e-14,1.8447672221737068e-08,0.0029657347528279704,137.0,8.0,4.950400000000001,3.0
1.0592064246368862e-06,1.9435853505374004e-14,1.8349448278730884e-08,0.0028923122505357217,137.0,9.0,5.5692,3.0
1.0242604675256641e-06,1.8698058422766476e-14,1.8255179239647823e-08,0.0028213350988437265,137.0,10.0,6.188000000000001,3.0
9.89893770825111e-07,1.798111801397689e-14,1.816469458029724e-08,0.002752763347963893,137.0,11.0,6.8068,3.0
9.561063345352235e-07,1.7284296806702058e-14,1.8077797607213e-08,0.002686557048108128,137.0,12.0,7.425600000000002,3.0
9.228981586559728e-07,1.660687109984544e-14,1.7994261819776753e-08,0.0026226762494883427,137.0,13.0,8.044400000000001,3.0
8.902692431873875e-07,1.5948128963517184e-14,1.7913826727764824e-08,0.002561081002316444,137.0,14.0,8.663200000000002,3.0
8.582195881294961e-07,1.530737023903407e-14,1.783619303352973e-08,0.0025017313568043383,137.0,15.0,9.282000000000002,3.0
8.267491934821766e-07,1.4683906538919542e-14,1.7761017071056997e-08,0.0024445873631639393,137.0,16.0,9.900800000000002,3.0
7.958580592455892e-07,1.4077061246903704e-14,1.7687904373611104e-08,0.0023896090716071516,137.0,17.0,10.519600000000002,3.0
7.655461854196056e-07,1.34861695179233e-14,1.7616402216845165e-08,0.0023367565323458867,137.0,18.0,11.1384,3.0
7.358135720043407e-07,1.2910578278121757e-14,1.75459909538684e-08,0.002285989795592049,137.0,19.0,11.757200000000001,3.0
7.066602189996793e-07,1.2349646224849139e-14,1.7476073921821745e-08,0.0022372689115575505,137.0,20.0,12.376000000000001,3.0
6.780861264056919e-07,1.1802743826662193e-14,1.7405965653986458e-08,0.0021905539304542987,137.0,21.0,12.9948,3.0
6.500912942223666e-07,1.1269253323324294e-14,1.7334878075554717e-08,0.002145804902494202,137.0,22.0,13.6136,3.0
6.22675722449695e-07,1.0748568725805483e-14,1.7261904291882592e-08,0.0021029818778891688,137.0,23.0,14.2324,3.0
5.958394110876904e-07,1.0240095816282464e-14,1.7185999492026582e-08,0.002062044906851107,137.0,24.0,14.851200000000004,3.0
5.695823601363179e-07,9.743252148138595e-15,1.710595838292244e-08,0.0020229540395919274,137.0,25.0,15.470000000000004,3.0
5.439045695956391e-07,9.257467045963899e-15,1.70203884347695e-08,0.0019856693263235353,137.0,26.0,16.088800000000003,3.0
5.188060394656025e-07,8.782181605555042e-15,1.692767804823774e-08,0.00195015081725784,137.0,27.0,16.707600000000003,3.0
4.942867697461911e-07,8.316848693915362e-15,1.682595853857456e-08,0.0019163585626067532,137.0,28.0,17.326400000000003,3.0
4.7034676043748016e-07,7.860932949254837e-15,1.6713058556931923e-08,0.00188425261258218,137.0,29.0,17.945200000000003,3.0
4.469860115394214e-07,7.41391078099012e-15,1.6586449216736304e-08,0.0018537930173960291,137.0,30.0,18.564000000000004,3.0
4.2420452305198955e-07,6.9752703697445094e-15,1.6443177737851787e-08,0.0018249398272602113,137.0,31.0,19.182800000000004,3.0
4.0200229497524153e-07,6.544511667347973e-15,1.6279786829950895e-08,0.0017976530923866333,137.0,32.0,19.801600000000004,3.0
3.803793273091422e-07,6.12114639683712e-15,1.609221626248457e-08,0.0017718928629872038,137.0,33.0,20.4204,3.0
3.5933562005370833e-07,5.704698052455227e-15,1.5875682047893196e-08,0.0017476191892738314,137.0,34.0,21.039200000000005,3.0
3.388711732089164e-07,5.294701899652226e-15,1.562452730786872e-08,0.0017247921214584249,137.0,35.0,21.658,3.0
3.1898598677479673e-07,4.8907049750847034e-15,1.5332037073269706e-08,0.0017033717097528923,137.0,36.0,22.2768,3.0
2.996800607513223e-07,4.49226608661591e-15,1.4990206807064285e-08,0.001683318004369143,137.0,37.0,22.895600000000005,3.0
2.8095339513852003e-07,4.098955813315748e-15,1.4589451077089908e-08,0.001664591055519084,137.0,38.0,23.514400000000002,3.0
2.6280598993635645e-07,3.7103565054607804e-15,1.411823416338157e-08,0.001647150913414626,137.0,39.0,24.133200000000002,3.0
2.4523784514486165e-07,3.326062284534219e-15,1.356259790396347e-08,0.0016309576282676752,137.0,40.0,24.752000000000002,3.0
2.282489607640155e-07,2.9456790432259433e-15,1.2905552925042466e-08,0.0016159712502901425,137.0,41.0,25.370800000000006,3.0
2.1183933679383814e-07,2.5688244454324873e-15,1.21262862899371e-08,0.0016021518296939342,137.0,42.0,25.9896,3.0
1.960089732343145e-07,2.195127926257041e-15,1.1199119560883188e-08,0.00158945941669096,137.0,43.0,26.608400000000003,3.0
1.807578700854396e-07,1.82423069200945e-15,1.0092123187483804e-08,0.0015778540614931284,137.0,44.0,27.2272,3.0
2.6759887649521597e-06,5.6531477421926666e-14,2.112545394895831e-08,0.006832147910021252,257.0,1.0,0.6188000000000001,3.0
2.600216909732676e-06,5.4557343119436465e-14,2.0981843059025956e-08,0.006651770046046318,257.0,2.0,1.2376000000000003,3.0
2.525442615159668e-06,5.26366041054124e-14,2.0842526292003873e-08,0.0064764901191560545,257.0,3.0,1.8564000000000005,3.0
2.4516658812328214e-06,5.0767820342954176e-14,2.0707479241594518e-08,0.006306243713683327,257.0,4.0,2.4752000000000005,3.0
2.37888670795235e-06,4.894956671941861e-14,2.0576669984234947e-08,0.006140966413960984,257.0,5.0,3.0940000000000003,3.0
2.307105095318227e-06,4.7180433046419427e-14,2.0450058015199202e-08,0.0059805938043218715,257.0,6.0,3.712800000000001,3.0
2.2363210433304295e-06,4.54590240598275e-14,2.0327593032943018e-08,0.005825061469098843,257.0,7.0,4.331600000000001,3.0
2.1665345519890537e-06,4.3783959419770695e-14,2.0209213547770785e-08,0.005674304992624742,257.0,8.0,4.950400000000001,3.0
2.09774562129388e-06,4.215387371063394e-14,2.00948452866433e-08,0.005528259959232426,257.0,9.0,5.5692,3.0
2.0299542512450845e-06,4.056741644105918e-14,1.998439936081166e-08,0.005386861953254743,257.0,10.0,6.188000000000001,3.0
1.9631604418426213e-06,3.902325204394542e-14,1.9877770156838643e-08,0.005250046559024545,257.0,11.0,6.8068,3.0
1.8973641930865365e-06,3.7520059876448683e-14,1.977483290406832e-08,0.005117749360874678,257.0,12.0,7.425600000000002,3.0
1.8325655049767303e-06,3.6056534219982086e-14,1.967544086258457e-08,0.004989905943137995,257.0,13.0,8.044400000000001,3.0
1.7687643775132759e-06,3.4631384280215734e-14,1.9579422064630425e-08,0.004866451890147346,257.0,14.0,8.663200000000002,3.0
1.7059608106962302e-06,3.3243334187076835e-14,1.948657552895936e-08,0.004747322786235577,257.0,15.0,9.282000000000002,3.0
1.6441548045253491e-06,3.1891122994749553e-14,1.9396666850939378e-08,0.004632454215735548,257.0,16.0,9.900800000000002,3.0
1.5833463590009405e-06,3.057350468167519e-14,1.930942305066243e-08,0.0045217817629801,257.0,17.0,10.519600000000002,3.0
1.5235354741227737e-06,2.928924815055198e-14,1.922452653583025e-08,0.00441524101230209,257.0,18.0,11.1384,3.0
1.4647221498910455e-06,2.8037137228335313e-14,1.9141608004235394e-08,0.004312767548034362,257.0,19.0,11.757200000000001,3.0
1.4069063863055656e-06,2.6815970666237557e-14,1.9060238070746382e-08,0.00421429695450977,257.0,20.0,12.376000000000001,3.0
1.3500881833664311e-06,2.562456213972811e-14,1.897991735312691e-08,0.004119764816061165,257.0,21.0,12.9948,3.0
1.2942675410736482e-06,2.4461740248533458e-14,1.8900064686966836e-08,0.0040291067170213956,257.0,22.0,13.6136,3.0
1.2394444594272042e-06,2.3326348516637103e-14,1.8820003057996743e-08,0.003942258241723311,257.0,23.0,14.2324,3.0
1.1856189384270819e-06,2.2217245392279582e-14,1.873894273463142e-08,0.0038591549744997635,257.0,24.0,14.851200000000004,3.0
1.1327909780732816e-06,2.1133304247958488e-14,1.8655960946920034e-08,0.0037797324996836023,257.0,25.0,15.470000000000004,3.0
1.0809605783658562e-06,2.0073413380428472e-14,1.8569977279628905e-08,0.003703926401607676,257.0,26.0,16.088800000000003,3.0
1.0301277393047364e-06,1.9036476010701173e-14,1.847972371227422e-08,0.003631672264604838,257.0,27.0,16.707600000000003,3.0
9.802924608899116e-07,1.8021410284045333e-14,1.838370792700523e-08,0.003562905673007938,257.0,28.0,17.326400000000003,3.0
9.314547431214787e-07,1.7027149269986698e-14,1.8280168087314197e-08,0.0034975622111498247,257.0,29.0,17.945200000000003,3.0
8.836145859993777e-07,1.6052640962308074e-14,1.816701672500388e-08,0.0034355774633633477,257.0,30.0,18.564000000000004,3.0
8.367719895235486e-07,1.5096848279049293e-14,1.804177059947396e-08,0.0033768870139813615,257.0,31.0,19.182800000000004,3.0
7.909269536941147e-07,1.4158749062507238e-14,1.7901462323893733e-08,0.003321426447336712,257.0,32.0,19.801600000000004,3.0
7.46079478510996e-07,1.3237336079235839e-14,1.7742528055663098e-08,0.0032691313477622506,257.0,33.0,20.4204,3.0
7.022295639741991e-07,1.233161702004606e-14,1.756066342501516e-08,0.0032199372995908287,257.0,34.0,21.039200000000005,3.0
6.593772100837475e-07,1.1440614500005914e-14,1.7350636820694548e-08,0.0031737798871552957,257.0,35.0,21.658,3.0
6.175224168396412e-07,1.0563366058440455e-14,1.7106044688226368e-08,0.0031305946947885,257.0,36.0,22.2768,3.0
5.766651842418433e-07,9.69892415893177e-15,1.6818986864419773e-08,0.0030903173068232946,257.0,37.0,22.895600000000005,3.0
5.368055122903907e-07,8.846356189318996e-15,1.6479629934450943e-08,0.0030528833075925293,257.0,38.0,23.514400000000002,3.0
4.979434009852533e-07,8.0047444616983e-15,1.6075611095276595e-08,0.003018228281429054,257.0,39.0,24.133200000000002,3.0
4.6007885032647433e-07,7.173186212422918e-15,1.5591210522571922e-08,0.0029862878126657192,257.0,40.0,24.752000000000002,3.0
4.23211860314004e-07,6.3507936021030954e-15,1.5006180586222453e-08,0.002956997485635375,257.0,41.0,25.370800000000006,3.0
3.873424309479056e-07,5.53669371560614e-15,1.4294054235309893e-08,0.00293029288467087,257.0,42.0,25.9896,3.0
3.52470562228099e-07,4.730028562056399e-15,1.3419641436595753e-08,0.0029061095941050573,257.0,43.0,26.608400000000003,3.0
3.1859625415464765e-07,3.929955074835257e-15,1.233522059216567e-08,0.002884383198270785,257.0,44.0,27.2272,3.0
5.202329525201519e-06,1.0032856343407311e-13,1.9285314962855367e-08,0.012779027915530025,377.0,1.0,0.6188000000000001,3.0
5.058935254789085e-06,9.675234625678601e-14,1.9125041413644216e-08,0.012430136623947619,377.0,2.0,1.2376000000000003,3.0
4.917221463187438e-06,9.327751050485895e-14,1.8969556527640035e-08,0.01209097358597765,377.0,3.0,1.8564000000000005,3.0
4.7771881503960686e-06,8.990124600122433e-14,1.8818862303711184e-08,0.011761427404481583,377.0,4.0,2.4752000000000005,3.0
4.638835316415413e-06,8.662077122764806e-14,1.867295674867434e-08,0.011441386682320857,377.0,5.0,3.0940000000000003,3.0
4.502162961245349e-06,8.343333332472965e-14,1.8531833263905456e-08,0.011130740022356922,377.0,6.0,3.712800000000001,3.0
4.367171084885838e-06,8.033620809190206e-14,1.839547994122198e-08,0.010829376027451224,377.0,7.0,4.331600000000001,3.0
4.233859687337086e-06,7.732669998743194e-14,1.826387875316366e-08,0.0105371833004652,377.0,8.0,4.950400000000001,3.0
4.102228768598653e-06,7.440214212841936e-14,1.8137004620011865e-08,0.010254050444260318,377.0,9.0,5.5692,3.0
3.972278328670953e-06,7.155989629079797e-14,1.80148243324985e-08,0.009979866061698012,377.0,10.0,6.188000000000001,3.0
3.8440083675537846e-06,6.879735290933499e-14,1.789729530508687e-08,0.009714518755639733,377.0,11.0,6.8068,3.0
3.7174188852472828e-06,6.611193107763118e-14,1.778436412963814e-08,0.009457897128946928,377.0,12.0,7.425600000000002,3.0
3.592509881751279e-06,6.350107854812082e-14,1.7675964893147427e-08,0.009209889784481045,377.0,13.0,8.044400000000001,3.0
3.469281357065855e-06,6.096227173207174e-14,1.7572017215585706e-08,0.008970385325103537,377.0,14.0,8.663200000000002,3.0
3.3477333111912177e-06,5.849301569958526e-14,1.747242395445526e-08,0.008739272353675833,377.0,15.0,9.282000000000002,3.0
3.227865744126858e-06,5.6090844179596375e-14,1.737706851087421e-08,0.008516439473059401,377.0,16.0,9.900800000000002,3.0
3.109678655873265e-06,5.375331955987345e-14,1.728581165721072e-08,0.00830177528611568,377.0,17.0,10.519600000000002,3.0
2.993172046430191e-06,5.1478032887018596e-14,1.7198487787701316e-08,0.00809516839570612,377.0,18.0,11.1384,3.0
2.8783459157977693e-06,4.926260386646731e-14,1.7114900469776777e-08,0.007896507404692167,377.0,19.0,11.757200000000001,3.0
2.7652002639759065e-06,4.710468086248866e-14,1.703481714368124e-08,0.0077056809159352655,377.0,20.0,12.376000000000001,3.0
2.6537350909645966e-06,4.500194089818534e-14,1.695796277910609e-08,0.007522577532296866,377.0,21.0,12.9948,3.0
2.5439503967638655e-06,4.2952089655493486e-14,1.6884012247303413e-08,0.0073470858566384205,377.0,22.0,13.6136,3.0
2.4358461813738005e-06,4.095286147518282e-14,1.6812581101523286e-08,0.007179094491821366,377.0,23.0,14.2324,3.0
2.329422444794228e-06,3.9002019356856623e-14,1.674321437230846e-08,0.007018492040707161,377.0,24.0,14.851200000000004,3.0
2.2246791870252806e-06,3.709735495895169e-14,1.6675372869629912e-08,0.006865167106157247,377.0,25.0,15.470000000000004,3.0
2.121616408066967e-06,3.523668859873835e-14,1.6608416330472752e-08,0.0067190082910330694,377.0,26.0,16.088800000000003,3.0
2.020234107919185e-06,3.341786925232056e-14,1.654158254299574e-08,0.006579904198196079,377.0,27.0,16.707600000000003,3.0
1.920532286581942e-06,3.1638774554635693e-14,1.6473961294836992e-08,0.006447743430507726,377.0,28.0,17.326400000000003,3.0
1.822510944055358e-06,2.9897310799454767e-14,1.6404461601162626e-08,0.006322414590829455,377.0,29.0,17.945200000000003,3.0
1.7261700803393802e-06,2.819141293938231e-14,1.6331770119569927e-08,0.006203806282022709,377.0,30.0,18.564000000000004,3.0
1.631509695433868e-06,2.651904458585637e-14,1.625429788132773e-08,0.0060918071069489465,377.0,31.0,19.182800000000004,3.0
1.5385297893390484e-06,2.4878198009148555e-14,1.6170111350158657e-08,0.005986305668469606,377.0,32.0,19.801600000000004,3.0
1.447230362054801e-06,2.3266894138364037e-14,1.6076842186567538e-08,0.0058871905694461366,377.0,33.0,20.4204,3.0
