dI/dz, Integral_trapz, Conc.(mol/cm^3), D(cm^2/sec), Time(sec), Position(element), depth(μm), crystal
2.9315779451417314e-07,2.569057141339797e-15,8.763393603766494e-09,0.0013193879577341483,17.0,1.0,0.6188000000000001,3.0
2.8794734068494204e-07,2.477635714458638e-15,8.604475070216212e-09,0.001303058595680064,17.0,2.0,1.2376000000000003,3.0
2.826813963294449e-07,2.3877714971548105e-15,8.44686466162787e-09,0.0012869853891397012,17.0,3.0,1.8564000000000005,3.0
2.773599614476498e-07,2.299487196774036e-15,8.290624157762769e-09,0.00127117263141787,17.0,4.0,2.4752000000000005,3.0
2.7198303603958543e-07,2.2128038241500107e-15,8.135815587513153e-09,0.0012556246158193793,17.0,5.0,3.0940000000000003,3.0
2.665506201052332e-07,2.127740693604447e-15,7.982501382905892e-09,0.001240345635649039,17.0,6.0,3.712800000000001,3.0
2.6106271364460645e-07,2.044315422947043e-15,7.830744553318476e-09,0.0012253399842116577,17.0,7.0,4.331600000000001,3.0
2.5551931665772374e-07,1.962543933475487e-15,7.680608883689124e-09,0.0012106119548120442,17.0,8.0,4.950400000000001,3.0
2.4992042914453476e-07,1.8824404499754856e-15,7.5321591612938e-09,0.0011961658407550083,17.0,9.0,5.5692,3.0
2.442660511050747e-07,1.804017500720706e-15,7.385461436655724e-09,0.0011820059353453594,17.0,10.0,6.188000000000001,3.0
2.3855618253933357e-07,1.7272859174728542e-15,7.2405833254313425e-09,0.0011681365318879074,17.0,11.0,6.8068,3.0
2.3279082344732297e-07,1.6522548354815955e-15,7.0975943596654514e-09,0.0011545619236874598,17.0,12.0,7.425600000000002,3.0
2.2696997382902623e-07,1.5789316934846105e-15,6.956566398840055e-09,0.0011412864040488272,17.0,13.0,8.044400000000001,3.0
2.2109363368445506e-07,1.5073222337075757e-15,6.817574113684461e-09,0.0011283142662768184,17.0,14.0,8.663200000000002,3.0
2.1516180301361617e-07,1.4374305018641522e-15,6.68069555902163e-09,0.0011156498036762415,17.0,15.0,9.282000000000002,3.0
2.0917448181647437e-07,1.3692588471560143e-15,6.546012856182789e-09,0.001103297309551908,17.0,16.0,9.900800000000002,3.0
2.0313167009306818e-07,1.3028079222728177e-15,6.413613011087411e-09,0.001091261077208626,17.0,17.0,10.519600000000002,3.0
1.9703336784337585e-07,1.2380766833922242e-15,6.283588901431081e-09,0.001079545399951205,17.0,18.0,11.1384,3.0
1.9087957506742247e-07,1.1750623901798873e-15,6.156040476121303e-09,0.0010681545710844534,17.0,19.0,11.757200000000001,3.0
1.8467029176517793e-07,1.1137606057894562e-15,6.031076223162554e-09,0.0010570928839131813,17.0,20.0,12.376000000000001,3.0
1.7840551793664555e-07,1.054165196862574e-15,5.90881497979745e-09,0.0010463646317421982,17.0,21.0,12.9948,3.0
1.7208525358184378e-07,9.962683335288874e-16,5.789388182846603e-09,0.001035974107876313,17.0,22.0,13.6136,3.0
1.657094987007692e-07,9.40060489406039e-16,5.672942690530723e-09,0.0010259256056203347,17.0,23.0,14.2324,3.0
1.592782532934152e-07,8.855304415996584e-16,5.559644353761051e-09,0.001016223418279072,17.0,24.0,14.851200000000004,3.0
1.5279151735977505e-07,8.3266527070338215e-16,5.449682581152214e-09,0.0010068718391573357,17.0,25.0,15.470000000000004,3.0
1.4624929089987049e-07,7.814503607988324e-16,5.343276237379175e-09,0.0009978751615599335,17.0,26.0,16.088800000000003,3.0
1.3965157391366977e-07,7.318693994556405e-16,5.240681353924946e-09,0.0009892376787916752,17.0,27.0,16.707600000000003,3.0
1.3299836640119296e-07,6.839043777314229e-16,5.142201338536806e-09,0.000980963684157371,17.0,28.0,17.326400000000003,3.0
1.2628966836244835e-07,6.375355901717967e-16,5.048200683701889e-09,0.000973057470961829,17.0,29.0,17.945200000000003,3.0
1.1952547979742765e-07,5.927416348103727e-16,4.9591236597832864e-09,0.0009655233325098581,17.0,30.0,18.564000000000004,3.0
1.1270580070610912e-07,5.494994131687625e-16,4.8755202458623535e-09,0.0009583655621062688,17.0,31.0,19.182800000000004,3.0
1.058306310885245e-07,5.077841302565746e-16,4.798082795441584e-09,0.00095158845305587,17.0,32.0,19.801600000000004,3.0
9.889997094466377e-08,4.675692945714032e-16,4.7276990084558904e-09,0.0009451962986634704,17.0,33.0,20.4204,3.0
9.191382027452859e-08,4.2882671809885287e-16,4.665530350256702e-09,0.0009391933922338791,17.0,34.0,21.039200000000005,3.0
8.48721790780939e-08,3.915265163125162e-16,4.6131314238115505e-09,0.0009335840270719066,17.0,35.0,21.658,3.0
7.777504735540652e-08,3.5563710817398217e-16,4.5726376295065045e-09,0.0009283724964823605,17.0,36.0,22.2768,3.0
7.06224251064146e-08,3.2112521613283614e-16,4.5470714953353885e-09,0.0009235630937700519,17.0,37.0,22.895600000000005,3.0
6.341431233117165e-08,2.879558661266655e-16,4.540865548188231e-09,0.0009191601122397882,17.0,38.0,23.514400000000002,3.0
5.6150709029630855e-08,2.560923875810458e-16,4.560804164483573e-09,0.0009151678451963796,17.0,39.0,24.133200000000002,3.0
4.883161520181561e-08,2.254964134095555e-16,4.617836466756302e-09,0.0009115905859446356,17.0,40.0,24.752000000000002,3.0
4.1457030847725934e-08,1.961278800137636e-16,4.730871362547709e-09,0.0009084326277893647,17.0,41.0,25.370800000000006,3.0
3.4026955967360145e-08,1.679450272832417e-16,4.9356465340108735e-09,0.0009056982640353764,17.0,42.0,25.9896,3.0
2.654139056069987e-08,1.4090439859554981e-16,5.308855173707007e-09,0.0009033917879874805,17.0,43.0,26.608400000000003,3.0
1.9000334627776843e-08,1.1496084081625092e-16,6.050464008575308e-09,0.0009015174929504857,17.0,44.0,27.2272,3.0
4.377835819181665e-07,9.66945654748142e-15,2.208729826073948e-08,0.0018520943570932917,137.0,1.0,0.6188000000000001,3.0
4.3060495570987336e-07,9.34828351257617e-15,2.1709651476641895e-08,0.001823373543604682,137.0,2.0,1.2376000000000003,3.0
4.233382198318868e-07,9.03459367694843e-15,2.134131352594667e-08,0.0017951568253207527,137.0,3.0,1.8564000000000005,3.0
4.159833742841599e-07,8.728235604066032e-15,2.0982174153200025e-08,0.001767449127028673,137.0,4.0,2.4752000000000005,3.0
4.085404190667162e-07,8.429057472190707e-15,2.0632126171129742e-08,0.0017402553735156121,137.0,5.0,3.0940000000000003,3.0
4.0100935417956236e-07,8.136907074378163e-15,2.0291065506503498e-08,0.001713580489568737,137.0,6.0,3.712800000000001,3.0
3.933901796226934e-07,7.851631818477999e-15,1.9958891261618734e-08,0.0016874293999752164,137.0,7.0,4.331600000000001,3.0
3.856828953961308e-07,7.573078727133791e-15,1.963550579383502e-08,0.0016618070295222169,137.0,8.0,4.950400000000001,3.0
3.778875014998064e-07,7.301094437783013e-15,1.932081481606439e-08,0.0016367183029969107,137.0,9.0,5.5692,3.0
3.700039979337985e-07,7.0355252026570755e-15,1.9014727521716885e-08,0.0016121681451864629,137.0,10.0,6.188000000000001,3.0
3.620323846980521e-07,6.7762168887813535e-15,1.8717156738430897e-08,0.0015881614808780432,137.0,11.0,6.8068,3.0
3.539726617926139e-07,6.523014977975125e-15,1.8428019115772394e-08,0.0015647032348588192,137.0,12.0,7.425600000000002,3.0
3.458248292174388e-07,6.275764566851593e-15,1.8147235353380828e-08,0.00154179833191596,137.0,13.0,8.044400000000001,3.0
3.3758888697255855e-07,6.034310366817931e-15,1.7874730477453304e-08,0.0015194516968366335,137.0,14.0,8.663200000000002,3.0
3.292648350579798e-07,5.7984967040752125e-15,1.7610434175438635e-08,0.0014976682544080066,137.0,15.0,9.282000000000002,3.0
3.2085267347364253e-07,5.568167519618456e-15,1.7354281201200184e-08,0.0014764529294172505,137.0,16.0,9.900800000000002,3.0
3.123524022196184e-07,5.3431663692366235e-15,1.7106211866044127e-08,0.001455810646651531,137.0,17.0,10.519600000000002,3.0
3.037640212958624e-07,5.123336423512587e-15,1.6866172635114415e-08,0.0014357463308980183,137.0,18.0,11.1384,3.0
2.95087530702413e-07,4.90852046782317e-15,1.6634116853867563e-08,0.001416264906943879,137.0,19.0,11.757200000000001,3.0
2.86322930439225e-07,4.6985609023391195e-15,1.6410005636403045e-08,0.0013973712995762827,137.0,20.0,12.376000000000001,3.0
2.774702205063218e-07,4.4932997420251305e-15,1.6193808956600286e-08,0.0013790704335823975,137.0,21.0,12.9948,3.0
2.685294009037085e-07,4.292578616639817e-15,1.5985506995485705e-08,0.0013613672337493914,137.0,22.0,13.6136,3.0
2.595004716313833e-07,4.096238770735725e-15,1.578509181499436e-08,0.0013442666248644325,137.0,23.0,14.2324,3.0
2.503834326893413e-07,3.904121063659331e-15,1.5592569451283535e-08,0.0013277735317146898,137.0,24.0,14.851200000000004,3.0
2.4117828407757076e-07,3.716065969551067e-15,1.5407962552531717e-08,0.0013118928790873312,137.0,25.0,15.470000000000004,3.0
2.3188502579610673e-07,3.5319135773452795e-15,1.5231313730671174e-08,0.0012966295917695243,137.0,26.0,16.088800000000003,3.0
2.225036578449092e-07,3.3515035907702417e-15,1.5062689859716042e-08,0.0012819885945484384,137.0,27.0,16.707600000000003,3.0
2.1303418022398811e-07,3.1746753283481744e-15,1.490218764430319e-08,0.0012679748122112421,137.0,28.0,17.326400000000003,3.0
2.0347659293336524e-07,3.001267723395232e-15,1.4749940915209303e-08,0.001254593169545103,137.0,29.0,17.945200000000003,3.0
1.938308959730355e-07,2.8311193240214917e-15,1.4606130306570624e-08,0.0012418485913371889,137.0,30.0,18.564000000000004,3.0
1.8409708934295722e-07,2.6640682931309754e-15,1.44709962696262e-08,0.00122974600237467,137.0,31.0,19.182800000000004,3.0
1.7427517304318882e-07,2.4999524084216237e-15,1.4344856842013212e-08,0.0012182903274447125,137.0,32.0,19.801600000000004,3.0
1.643651470736952e-07,2.338609062385328e-15,1.4228132326233268e-08,0.0012074864913344861,137.0,33.0,20.4204,3.0
1.5436701143449646e-07,2.1798752623078937e-15,1.41213802226967e-08,0.001197339418831158,137.0,34.0,21.039200000000005,3.0
1.4428076612555913e-07,2.0235876302690732e-15,1.4025345751962967e-08,0.001187854034721898,137.0,35.0,21.658,3.0
1.3410641114693005e-07,1.8695824031425507e-15,1.394103672712704e-08,0.001179035263793873,137.0,36.0,22.2768,3.0
1.2384394649855904e-07,1.7176954325959384e-15,1.3869837655859299e-08,0.0011708880308342522,137.0,37.0,22.895600000000005,3.0
1.1349337218049793e-07,1.567762185090784e-15,1.381368933683142e-08,0.0011634172606302033,137.0,38.0,23.514400000000002,3.0
1.0305468819270494e-07,1.4196177418825672e-15,1.377538243799237e-08,0.001156627877968895,137.0,39.0,24.133200000000002,3.0
9.25278945351951e-08,1.2730967990207032e-15,1.3759059421118156e-08,0.0011505248076374957,137.0,40.0,24.752000000000002,3.0
8.191299120797509e-08,1.1280336673485393e-15,1.3771120437837379e-08,0.0011451129744231739,137.0,41.0,25.370800000000006,3.0
7.120997821103658e-08,9.84262272503354e-16,1.382197126344306e-08,0.0011403973031130974,137.0,42.0,25.9896,3.0
6.041885554437955e-08,8.41616154916362e-16,1.3929693757574876e-08,0.0011363827184944345,137.0,43.0,26.608400000000003,3.0
4.953962320800901e-08,6.999284698127111e-16,1.4128659535294054e-08,0.0011330741453543537,137.0,44.0,27.2272,3.0
9.256415883770605e-07,1.9297464276814327e-14,2.0847663414355466e-08,0.003070466156567904,257.0,1.0,0.6188000000000001,3.0
9.06583360206767e-07,1.856566275262591e-14,2.0478715546236794e-08,0.003004339618720135,257.0,2.0,1.2376000000000003,3.0
8.874973850099714e-07,1.7856377305066464e-14,2.011992103488377e-08,0.002939705773028392,257.0,3.0,1.8564000000000005,3.0
8.683836627866336e-07,1.7169007005876105e-14,1.9771222953205903e-08,0.002876562597617793,257.0,4.0,2.4752000000000005,3.0
8.492421935367837e-07,1.6502955164279003e-14,1.9432566221833866e-08,0.0028149080706134514,257.0,5.0,3.0940000000000003,3.0
8.300729772604353e-07,1.5857629326983223e-14,1.9103897803443243e-08,0.0027547401701404823,257.0,6.0,3.712800000000001,3.0
8.10876013957548e-07,1.5232441278180824e-14,1.8785166925628525e-08,0.0026960568743240026,257.0,7.0,4.331600000000001,3.0
7.916513036282155e-07,1.4626807039547788e-14,1.847632533731922e-08,0.0026388561612891224,257.0,8.0,4.950400000000001,3.0
7.723988462722641e-07,1.4040146870244108e-14,1.817732760477878e-08,0.002583136009160964,257.0,9.0,5.5692,3.0
7.531186418898674e-07,1.3471885266913708e-14,1.7888131454437924e-08,0.002528894396064638,257.0,10.0,6.188000000000001,3.0
7.338106904809253e-07,1.292145096368445e-14,1.7608698171480687e-08,0.002476129300125262,257.0,11.0,6.8068,3.0
7.14474992045498e-07,1.2388276932168182e-14,1.7338993064965516e-08,0.0024248386994679483,257.0,12.0,7.425600000000002,3.0
6.951115465835334e-07,1.187180038146072e-14,1.7078986012835645e-08,0.002375020572217814,257.0,13.0,8.044400000000001,3.0
6.757203540950619e-07,1.137146275814182e-14,1.6828652103236865e-08,0.0023266728964999746,257.0,14.0,8.663200000000002,3.0
6.563014145800984e-07,1.0886709746275211e-14,1.658797239259423e-08,0.0022797936504395434,257.0,15.0,9.282000000000002,3.0
6.368547280385776e-07,1.041699126740856e-14,1.6356934805982238e-08,0.002234380812161637,257.0,16.0,9.900800000000002,3.0
6.173802944705616e-07,9.961761480573509e-15,1.6135535211917122e-08,0.002190432359791372,257.0,17.0,10.519600000000002,3.0
5.978781138760268e-07,9.520478782285689e-15,1.5923778712294208e-08,0.0021479462714538615,257.0,18.0,11.1384,3.0
5.783481862549901e-07,9.092605806544614e-15,1.572168119938694e-08,0.0021069205252742212,257.0,19.0,11.757200000000001,3.0
5.587905116074313e-07,8.677609424833842e-15,1.55292712466996e-08,0.0020673530993775657,257.0,20.0,12.376000000000001,3.0
5.39205089933357e-07,8.274960746120826e-15,1.5346592420230248e-08,0.002029241971889011,257.0,21.0,12.9948,3.0
5.195919212327524e-07,7.884135116857013e-15,1.5173706123358483e-08,0.0019925851209336735,257.0,22.0,13.6136,3.0
4.999510055056608e-07,7.504612120977805e-15,1.5010695124790247e-08,0.0019573805246366665,257.0,23.0,14.2324,3.0
4.802823427520438e-07,7.135875579902567e-15,1.4857667968831862e-08,0.001923626161123105,257.0,24.0,14.851200000000004,3.0
4.6058593297190634e-07,6.777413552534596e-15,1.4714764536562578e-08,0.0018913200085181054,257.0,25.0,15.470000000000004,3.0
4.408617761652803e-07,6.428718335261177e-15,1.4582163124187552e-08,0.0018604600449467813,257.0,26.0,16.088800000000003,3.0
4.2110987233210706e-07,6.089286461953554e-15,1.446008954440103e-08,0.0018310442485342496,257.0,27.0,16.707600000000003,3.0
4.013302214724285e-07,5.7586187039669156e-15,1.4348828958953778e-08,0.001803070597405625,257.0,28.0,17.326400000000003,3.0
3.8152282358623464e-07,5.436220070140416e-15,1.4248741448915391e-08,0.001776537069686023,257.0,29.0,17.945200000000003,3.0
3.616876786735453e-07,5.121599806797172e-15,1.4160282776510789e-08,0.0017514416435005574,257.0,30.0,18.564000000000004,3.0
3.418247867343039e-07,4.8142713977442575e-15,1.4084032476809033e-08,0.0017277822969743455,257.0,31.0,19.182800000000004,3.0
3.2193414776858725e-07,4.513752564272707e-15,1.4020732486934824e-08,0.0017055570082325003,257.0,32.0,19.801600000000004,3.0
3.0201576177632674e-07,4.219565265157502e-15,1.3971341231794774e-08,0.0016847637554001389,257.0,33.0,20.4204,3.0
2.8206962875757596e-07,3.931235696657615e-15,1.3937110896956247e-08,0.0016654005166023749,257.0,34.0,21.039200000000005,3.0
2.6209574871228804e-07,3.648294292515946e-15,1.391970037835604e-08,0.0016474652699643246,257.0,35.0,21.658,3.0
2.4209412164050645e-07,3.3702757239593643e-15,1.392134472791536e-08,0.0016309559936111024,257.0,36.0,22.2768,3.0
2.2206474754218783e-07,3.0967188996987093e-15,1.3945117061457019e-08,0.0016158706656678244,257.0,37.0,22.895600000000005,3.0
2.020076264173805e-07,2.8271669659287657e-15,1.3995347681019628e-08,0.0016022072642596045,257.0,38.0,23.514400000000002,3.0
1.819227582660344e-07,2.5611673063282866e-15,1.4078322749388884e-08,0.0015899637675115595,257.0,39.0,24.133200000000002,3.0
1.6181014308818964e-07,2.2982715420599776e-15,1.4203507259785163e-08,0.0015791381535488031,257.0,40.0,24.752000000000002,3.0
1.4166978088381611e-07,2.038035531770513e-15,1.4385816926207524e-08,0.0015697284004964518,257.0,41.0,25.370800000000006,3.0
1.2150167165294058e-07,1.7800193715905185e-15,1.4650163634579413e-08,0.0015617324864796197,257.0,42.0,25.9896,3.0
1.01305815395543e-07,1.5237873951345804e-15,1.504146024771664e-08,0.001555148389623423,257.0,43.0,26.608400000000003,3.0
8.108221211164004e-08,1.2689081735012476e-15,1.564964917032752e-08,0.0015499740880529757,257.0,44.0,27.2272,3.0
2.023522700660627e-06,3.8296718914692136e-14,1.8925766882767985e-08,0.005507707435365036,377.0,1.0,0.6188000000000001,3.0
1.976616757170884e-06,3.6832730060718346e-14,1.8634229385688674e-08,0.005367039019484554,377.0,2.0,1.2376000000000003,3.0
1.9298613472645204e-06,3.5413630575071e-14,1.8350349689768133e-08,0.005229769493386252,377.0,3.0,1.8564000000000005,3.0
1.8832564709414611e-06,3.4038261241775546e-14,1.8074150688970917e-08,0.005095885130021868,377.0,4.0,2.4752000000000005,3.0
1.8368021282017946e-06,3.2705469985047e-14,1.7805657715055692e-08,0.0049653722023431345,377.0,5.0,3.0940000000000003,3.0
1.7904983190455034e-06,3.141411186929003e-14,1.75448988335474e-08,0.004838216983301786,377.0,6.0,3.712800000000001,3.0
1.744345043472541e-06,3.016304909909895e-14,1.7291905183536452e-08,0.004714405745849557,377.0,7.0,4.331600000000001,3.0
1.6983423014830675e-06,2.895115101925772e-14,1.7046711369066354e-08,0.004593924762938176,377.0,8.0,4.950400000000001,3.0
1.6524900930768028e-06,2.7777294114739933e-14,1.6809355911490433e-08,0.0044767603075193865,377.0,9.0,5.5692,3.0
1.6067884182539804e-06,2.664036201070883e-14,1.6579881774140262e-08,0.004362898652544918,377.0,10.0,6.188000000000001,3.0
1.5612372770145067e-06,2.55392454725173e-14,1.635833697319539e-08,0.004252326070966506,377.0,11.0,6.8068,3.0
1.5158366693584418e-06,2.4472842405707852e-14,1.614477529169793e-08,0.004145028835735881,377.0,12.0,7.425600000000002,3.0
1.4705865952856923e-06,2.3440057856012682e-14,1.593925711763948e-08,0.0040409932198047826,377.0,13.0,8.044400000000001,3.0
1.4254870547963418e-06,2.2439804009353562e-14,1.574185043199815e-08,0.00394020549612494,377.0,14.0,8.663200000000002,3.0
1.3805380478903733e-06,2.1471000191842e-14,1.5552631978997063e-08,0.0038426519376480897,377.0,15.0,9.282000000000002,3.0
1.335739574567717e-06,2.0532572869779076e-14,1.5371688659014235e-08,0.0037483188173259674,377.0,16.0,9.900800000000002,3.0
1.2910916348284496e-06,1.9623455649655524e-14,1.5199119195178534e-08,0.003657192408110306,377.0,17.0,10.519600000000002,3.0
1.2465942286725474e-06,1.8742589278151716e-14,1.503503613851158e-08,0.0035692589829528403,377.0,18.0,11.1384,3.0
1.2022473561000479e-06,1.788892164213772e-14,1.487956829463724e-08,0.003484504814805301,377.0,19.0,11.757200000000001,3.0
1.1580510171108635e-06,1.706140776867318e-14,1.4732863679217201e-08,0.0034029161766194285,377.0,20.0,12.376000000000001,3.0
1.1140052117050713e-06,1.6259009825007408e-14,1.4595093141549791e-08,0.0033244793413469533,377.0,21.0,12.9948,3.0
1.070109939882631e-06,1.5480697118579367e-14,1.4466454839469373e-08,0.0032491805819396093,377.0,22.0,13.6136,3.0
1.02636520164358e-06,1.4725446097017658e-14,1.4347179808353712e-08,0.0031770061713491315,377.0,23.0,14.2324,3.0
9.82770996987871e-07,1.3992240348140517e-14,1.4237538949588278e-08,0.003107942382527256,377.0,24.0,14.851200000000004,3.0
9.393273259155507e-07,1.3280070599955855e-14,1.4137851879281734e-08,0.003041975488425713,377.0,25.0,15.470000000000004,3.0
8.960341884266028e-07,1.258793472066117e-14,1.4048498241752404e-08,0.0029790917619962397,377.0,26.0,16.088800000000003,3.0
8.528915845210001e-07,1.1914837718643653e-14,1.3969932327723984e-08,0.002919277476190569,377.0,27.0,16.707600000000003,3.0
8.098995141987596e-07,1.1259791742480105e-14,1.390270218104713e-08,0.0028625189039604365,377.0,28.0,17.326400000000003,3.0
7.67057977459898e-07,1.0621816080936996e-14,1.3847474888548835e-08,0.0028088023182575752,377.0,29.0,17.945200000000003,3.0
7.243669743044084e-07,9.999937162970424e-15,1.3805070520468048e-08,0.00275811399203372,377.0,30.0,18.564000000000004,3.0
6.818265047322746e-07,9.39318855772613e-15,1.3776508382311205e-08,0.0027104401982406038,377.0,31.0,19.182800000000004,3.0
6.394365687435094e-07,8.800610974539498e-15,1.3763071123430849e-08,0.002665767209829963,377.0,32.0,19.801600000000004,3.0
5.971971663381097e-07,8.221252262935576e-15,1.3766395298468352e-08,0.0026240812997535305,377.0,33.0,20.4204,3.0
