dI/dz, Integral_trapz, Conc.(mol/cm^3), D(cm^2/sec), Time(sec), Position(element), depth(μm), crystal
1.6878665827338316e-07,1.1373139789883532e-14,6.738174631944248e-08,0.0017743108272467614,7.0,1.0,0.272,1.0
1.6025835946102204e-07,1.1108513504985357e-14,6.931628117463142e-08,0.0017652613893118097,7.0,2.0,0.544,1.0
1.5181250615979466e-07,1.0846701340797862e-14,7.14480092264655e-08,0.0017566399730841147,7.0,3.0,0.8160000000000001,1.0
1.4344909836985682e-07,1.0587578702247991e-14,7.38072167937221e-08,0.0017484417159111026,7.0,4.0,1.088,1.0
1.3516813609103177e-07,1.033102258533116e-14,7.643090216449771e-08,0.001740661755140205,7.0,5.0,1.36,1.0
1.2696961932347352e-07,1.0076911577111297e-14,7.936474591956446e-08,0.0017332952281188486,7.0,6.0,1.6320000000000001,1.0
1.1885354806714969e-07,9.82512585572081e-15,8.266581869453174e-08,0.0017263372721944615,7.0,7.0,1.9040000000000001,1.0
1.1081992232194626e-07,9.57554719036061e-15,8.640636980905294e-08,0.0017197830247144752,7.0,8.0,2.176,1.0
1.0286874208804189e-07,9.328058941300095e-15,9.067923600462154e-08,0.0017136276230263151,7.0,9.0,2.4480000000000004,1.0
9.500000736526554e-08,9.08254605987715e-15,9.560574058647877e-08,0.001707866204477413,7.0,10.0,2.72,1.0
8.721371815375403e-08,8.838895088498164e-15,1.0134753196642267e-07,0.0017024939064151953,7.0,11.0,2.992,1.0
7.950987445340855e-08,8.596994160638011e-15,1.0812486146831617e-07,0.001697505866187092,7.0,12.0,3.2640000000000002,1.0
7.18884762643203e-08,8.356733000840058e-15,1.1624579397279105e-07,0.0016928972211405306,7.0,13.0,3.5360000000000005,1.0
6.43495235863753e-08,8.11800292471617e-15,1.2615482558809482e-07,0.0016886631086229411,7.0,14.0,3.8080000000000003,1.0
5.689301641966091e-08,7.880696838946704e-15,1.3851782406501684e-07,0.0016847986659817525,7.0,15.0,4.08,1.0
4.951895476420379e-08,7.644709241280506e-15,1.5437945485082624e-07,0.0016812990305643911,7.0,16.0,4.352,1.0
4.2227338619882276e-08,7.40993622053491e-15,1.754772254826882e-07,0.0016781593397182883,7.0,17.0,4.6240000000000006,1.0
3.5018167986810404e-08,7.176275456595757e-15,2.0493006542485894e-07,0.0016753747307908713,7.0,18.0,4.896000000000001,1.0
2.7891442864938764e-08,6.943626220417367e-15,2.4895184713250983e-07,0.0016729403411295685,7.0,19.0,5.168,1.0
2.0847163254282563e-08,6.711889374022563e-15,3.219569632642351e-07,0.0016708513080818093,7.0,20.0,5.44,1.0
1.3885329154788578e-08,6.480967370502651e-15,4.6674927891555134e-07,0.001669102768995023,7.0,21.0,5.712,1.0
7.005940566521437e-09,6.250764254017441e-15,8.92209146604429e-07,0.0016676898612166388,7.0,22.0,5.984,1.0
2.089974895153464e-10,6.0211856597952254e-15,2.880984682523231e-05,0.0016666077220940825,7.0,23.0,6.256,1.0
-6.505500076351333e-09,5.7921388141327954e-15,-8.903448998776074e-07,0.0016658514889747852,7.0,24.0,6.5280000000000005,1.0
-1.3137552131002575e-08,5.563532534395431e-15,-4.2348319374249036e-07,0.001665416299206176,7.0,25.0,6.800000000000001,1.0
-1.968715867438136e-08,5.3352772290169096e-15,-2.710029068826288e-07,0.0016652972901356807,7.0,26.0,7.072000000000001,1.0
-2.615431970665115e-08,5.107284897499496e-15,-1.9527500446515888e-07,0.0016654895991107318,7.0,27.0,7.344,1.0
-3.253903522762947e-08,4.879469130413953e-15,-1.499574002818224e-07,0.001665988363478755,7.0,28.0,7.6160000000000005,1.0
-3.884130523746078e-08,4.651745109399531e-15,-1.1976284218464217e-07,0.001666788720587181,7.0,29.0,7.888000000000001,1.0
-4.5061129736027235e-08,4.4240296071639814e-15,-9.817839972234174e-08,0.0016678858077834363,7.0,30.0,8.16,1.0
-5.119850872344288e-08,4.196240987483538e-15,-8.196021900071777e-08,0.001669274762414952,7.0,31.0,8.432,1.0
-5.725344219962408e-08,3.9682992052029325e-15,-6.93111025773222e-08,0.0016709507218291555,7.0,32.0,8.704,1.0
-6.322593016459745e-08,3.74012580623539e-15,-5.9154935269416185e-08,0.0016729088233734758,7.0,33.0,8.976,1.0
-6.911597261836677e-08,3.5116439275626274e-15,-5.080799407906254e-08,0.0016751442043953415,7.0,34.0,9.248000000000001,1.0
-7.492356956093588e-08,3.282778297234854e-15,-4.3815027987487253e-08,0.0016776520022421814,7.0,35.0,9.520000000000001,1.0
-8.064872099230095e-08,3.0534552343707724e-15,-3.786117370246042e-08,0.0016804273542614248,7.0,36.0,9.792000000000002,1.0
-8.629142691242397e-08,2.823602649157577e-15,-3.2721705390539134e-08,0.0016834653978004986,7.0,37.0,10.064000000000002,1.0
-9.185168732138857e-08,2.593150042850956e-15,-2.8231926037216253e-08,0.0016867612702068334,7.0,38.0,10.336,1.0
-9.732950221912253e-08,2.3620285077750897e-15,-2.426837139737284e-08,0.0016903101088278575,7.0,39.0,10.608,1.0
1.0814345437716868e-06,3.634686428995702e-14,3.3609860623825786e-08,0.0049447511047541765,127.0,1.0,0.272,1.0
1.0378459981761613e-06,3.550073639409144e-14,3.4206169755896324e-08,0.004906073010635751,127.0,2.0,0.544,1.0
9.947474324194743e-07,3.4662401972635757e-14,3.484542994831174e-08,0.004868948873044047,127.0,3.0,0.8160000000000001,1.0
9.521388465021434e-07,3.3831560842201656e-14,3.553217155931417e-08,0.0048333610218777145,127.0,4.0,1.088,1.0
9.100202404236207e-07,3.3007916253502225e-14,3.627162868172779e-08,0.004799291787035423,127.0,5.0,1.36,1.0
8.683916141843018e-07,3.2191174891352065e-14,3.7069882257660794e-08,0.0047667234984158265,127.0,6.0,1.6320000000000001,1.0
8.272529677841031e-07,3.138104687466721e-14,3.793403964294638e-08,0.004735638485917584,127.0,7.0,1.9040000000000001,1.0
7.866043012228115e-07,3.057724575646514e-14,3.88724619340772e-08,0.004706019079439362,127.0,8.0,2.176,1.0
7.46445614500777e-07,2.9779488523864817e-14,3.9895054569757696e-08,0.0046778476088798135,127.0,9.0,2.4480000000000004,1.0
7.067769076176802e-07,2.898749559808665e-14,4.101364275722344e-08,0.004651106404137602,127.0,10.0,2.72,1.0
6.675981805737718e-07,2.820099083445253e-14,4.224246209031756e-08,0.004625777795111384,127.0,11.0,2.992,1.0
6.289094333687708e-07,2.741970152238578e-14,4.359880782120152e-08,0.0046018441116998255,127.0,12.0,3.2640000000000002,1.0
5.907106660030495e-07,2.664335838541121e-14,4.5103906055547105e-08,0.004579287683801579,127.0,13.0,3.5360000000000005,1.0
5.530018784761898e-07,2.5871695581155055e-14,4.6784100720317886e-08,0.0045580908413153124,127.0,14.0,3.8080000000000003,1.0
5.157830707885263e-07,2.5104450701345013e-14,4.867249842645178e-08,0.00453823591413968,127.0,15.0,4.08,1.0
4.790542429399754e-07,2.434136477181029e-14,5.081129147803043e-08,0.00451970523217334,127.0,16.0,4.352,1.0
4.428153949303848e-07,2.3582182252481497e-14,5.325510929038242e-08,0.004502481125314958,127.0,17.0,4.6240000000000006,1.0
4.070665267599372e-07,2.2826651037390716e-14,5.6075971706837175e-08,0.00448654592346319,127.0,18.0,4.896000000000001,1.0
3.718076384285641e-07,2.207452245467152e-14,5.937081483309205e-08,0.004471881956516697,127.0,19.0,5.168,1.0
3.370387299362504e-07,2.1325551266558907e-14,6.327329583336774e-08,0.004458471554374139,127.0,20.0,5.44,1.0
3.027598012829655e-07,2.057949566938933e-14,6.797301221028122e-08,0.004446297046934176,127.0,21.0,5.712,1.0
2.689708524687551e-07,1.9836117293600737e-14,7.37482039839428e-08,0.004435340764095469,127.0,22.0,5.984,1.0
2.3567188349371808e-07,1.9095181203732503e-14,8.102443499265151e-08,0.004425585035756675,127.0,23.0,6.256,1.0
2.0286289435765672e-07,1.8356455898425488e-14,9.048700580039149e-08,0.004417012191816456,127.0,24.0,6.5280000000000005,1.0
1.705438850606927e-07,1.7619713310421985e-14,1.0331483479546352e-07,0.00440960456217347,127.0,25.0,6.800000000000001,1.0
1.3871485560283357e-07,1.6884728806565765e-14,1.2172257061572327e-07,0.00440334447672638,127.0,26.0,7.072000000000001,1.0
1.0737580598399574e-07,1.6151281187802048e-14,1.5041825334665594e-07,0.004398214265373843,127.0,27.0,7.344,1.0
7.652673620426283e-08,1.541915268917752e-14,2.0148713317684406e-07,0.00439419625801452,127.0,28.0,7.6160000000000005,1.0
4.6167646263581625e-08,1.4688128979840323e-14,3.181476676541499e-07,0.004391272784547071,127.0,29.0,7.888000000000001,1.0
1.6298536162043336e-08,1.3957999163040067e-14,8.563958765539937e-07,0.004389426174870155,127.0,30.0,8.16,1.0
-1.3080594100519272e-08,1.3228555776127806e-14,-1.0113115409339596e-06,0.004388638758882434,127.0,31.0,8.432,1.0
-4.196974452398456e-08,1.2499594790556066e-14,-2.9782394275506937e-07,0.0043888928664825655,127.0,32.0,8.704,1.0
-7.036891510832213e-08,1.1770915611878823e-14,-1.6727436530404522e-07,0.00439017082756921,127.0,33.0,8.976,1.0
-9.82781058536688e-08,1.1042321079751526e-14,-1.1235789481121046e-07,0.00439245497204103,127.0,34.0,9.248000000000001,1.0
-1.2569731675986497e-07,1.0313617467931062e-14,-8.205121424854623e-08,0.00439572762979668,127.0,35.0,9.520000000000001,1.0
-1.5262654782708543e-07,9.584614484275804e-15,-6.279782004330244e-08,0.0043999711307348265,127.0,36.0,9.792000000000002,1.0
-1.7906579905511737e-07,8.855125270745559e-15,-4.945179547111565e-08,0.004405167804754124,127.0,37.0,10.064000000000002,1.0
-2.050150704441508e-07,8.124966403401612e-15,-3.963106900287594e-08,0.004411299981753235,127.0,38.0,10.336,1.0
-2.3047436199410213e-07,7.393957892406696e-15,-3.208147677873129e-08,0.004418349991630818,127.0,39.0,10.608,1.0
3.0271328463345434e-06,5.133722235479324e-14,1.6959025242964083e-08,0.0095300624736936,247.0,1.0,0.272,1.0
2.9040278406780425e-06,5.011528183835674e-14,1.725716301213409e-08,0.009435192736926295,247.0,2.0,0.544,1.0
2.7825639045383735e-06,4.890807596511944e-14,1.7576622727460153e-08,0.009344354818319096,247.0,3.0,0.8160000000000001,1.0
2.6627410379163266e-06,4.771494571806076e-14,1.7919484110027878e-08,0.009257490919938455,247.0,4.0,1.088,1.0
2.544559240811157e-06,4.6535242839761954e-14,1.8288134971826164e-08,0.009174543243850848,247.0,5.0,1.36,1.0
2.428018513223351e-06,4.536832983240581e-14,1.868533109831046e-08,0.009095453992122738,247.0,6.0,1.6320000000000001,1.0
2.313118855152772e-06,4.4213579957776846e-14,1.9114270699616394e-08,0.009020165366820588,247.0,7.0,1.9040000000000001,1.0
2.199860266599344e-06,4.307037723726119e-14,1.957868774267266e-08,0.008948619570010866,247.0,8.0,2.176,1.0
2.0882427475633704e-06,4.19381164518467e-14,2.0082969999910908e-08,0.00888075880376003,247.0,9.0,2.4480000000000004,1.0
1.9782662980442745e-06,4.081620314212287e-14,2.0632309807063896e-08,0.008816525270134557,247.0,10.0,2.72,1.0
1.8699309180427396e-06,3.970405360828085e-14,2.1232898619505772e-08,0.008755861171200901,247.0,11.0,2.992,1.0
1.7632366075580213e-06,3.860109491011348e-14,2.1892180972565966e-08,0.00869870870902554,247.0,12.0,3.2640000000000002,1.0
1.6581833665909102e-06,3.750676486701523e-14,2.2619190146700167e-08,0.008645010085674929,247.0,13.0,3.5360000000000005,1.0
1.5547711951407215e-06,3.642051205798225e-14,2.342499794941586e-08,0.008594707503215539,247.0,14.0,3.8080000000000003,1.0
1.4530000932078205e-06,3.5341795821612387e-14,2.4323326603226514e-08,0.00854774316371384,247.0,15.0,4.08,1.0
1.3528700607923138e-06,3.427008625610511e-14,2.5331395267949606e-08,0.008504059269236284,247.0,16.0,4.352,1.0
1.2543810978939426e-06,3.3204864219261536e-14,2.647111334427091e-08,0.008463598021849343,247.0,17.0,4.6240000000000006,1.0
1.1575332045125855e-06,3.2145621328484546e-14,2.7770798455859794e-08,0.00842630162361949,247.0,18.0,4.896000000000001,1.0
1.0623263806487594e-06,3.109185996077859e-14,2.9267709554375263e-08,0.008392112276613179,247.0,19.0,5.168,1.0
9.68760626301993e-07,3.00430932527498e-14,3.10118851211284e-08,0.00836097218289688,247.0,20.0,5.44,1.0
8.768359414724534e-07,2.8998845100606034e-14,3.307214466130214e-08,0.00833282354453706,247.0,21.0,5.712,1.0
7.865523261599886e-07,2.79586501601567e-14,3.554582350121964e-08,0.008307608563600187,247.0,22.0,5.984,1.0
6.979097803651003e-07,2.6922053846812994e-14,3.8575263743587534e-08,0.008285269442152715,247.0,23.0,6.256,1.0
6.109083040870741e-07,2.58886123355877e-14,4.2377247391120314e-08,0.008265748382261124,247.0,24.0,6.5280000000000005,1.0
5.255478973264269e-07,2.4857892561095303e-14,4.729900488148207e-08,0.008248987585991872,247.0,25.0,6.800000000000001,1.0
4.418285600830977e-07,2.3829472217551936e-14,5.393375252398841e-08,0.00823492925541142,247.0,26.0,7.072000000000001,1.0
3.597502923567673e-07,2.28029397587754e-14,6.338546553886199e-08,0.008223515592586245,247.0,27.0,7.344,1.0
2.793130941478158e-07,2.1777894398185178e-14,7.796947173074549e-08,0.0082146887995828,247.0,28.0,7.6160000000000005,1.0
2.0051696545592395e-07,2.0753946108802384e-14,1.0350219524623891e-07,0.008208391078467565,247.0,29.0,7.888000000000001,1.0
1.2336190628154792e-07,1.973071562324982e-14,1.5994172121674709e-07,0.008204564631306987,247.0,30.0,8.16,1.0
4.784791662398818e-08,1.8707834433751958e-14,3.9098535012019583e-07,0.008203151660167551,247.0,31.0,8.432,1.0
-2.6025003516086177e-08,1.768494479213492e-14,-6.795366917512143e-07,0.00820409436711571,247.0,32.0,8.704,1.0
-9.825685413890324e-08,1.6661699709826517e-14,-1.695729000876854e-07,0.00820733495421793,247.0,33.0,8.976,1.0
-1.688476352446759e-07,1.5637762957856187e-14,-9.261464002854181e-08,0.008212815623540681,247.0,34.0,9.248000000000001,1.0
-2.3779734683311522e-07,1.461280906685507e-14,-6.145068168952387e-08,0.008220478577150426,247.0,35.0,9.520000000000001,1.0
-3.0510598890451013e-07,1.3586523327055954e-14,-4.4530503566444794e-08,0.008230266017113633,247.0,36.0,9.792000000000002,1.0
-3.707735614584197e-07,1.2558601788293295e-14,-3.3871351934843055e-08,0.008242120145496764,247.0,37.0,10.064000000000002,1.0
-4.3480006449533044e-07,1.1528751260003206e-14,-2.6515063362248006e-08,0.008255983164366288,247.0,38.0,10.336,1.0
-4.971854980148927e-07,1.0496689311223492e-14,-2.111221938920888e-08,0.008271797275788667,247.0,39.0,10.608,1.0
4.883925902898674e-06,3.6621967307568586e-14,7.498469066828588e-09,0.012675038046093616,367.0,1.0,0.272,1.0
4.683853425905847e-06,3.578213492794226e-14,7.639465131431195e-09,0.012554510927343733,367.0,2.0,0.544,1.0
4.486596029651253e-06,3.49490470491869e-14,7.789657642055087e-09,0.012439023286867948,367.0,3.0,0.8160000000000001,1.0
4.292153714136474e-06,3.412243534260142e-14,7.949956505569004e-09,0.012328503465188514,367.0,4.0,1.088,1.0
4.100526479360172e-06,3.330203519622393e-14,8.121404742500342e-09,0.012222879802827729,367.0,5.0,1.36,1.0
3.911714325323197e-06,3.248758571483203e-14,8.305204064754348e-09,0.012122080640307863,367.0,6.0,1.6320000000000001,1.0
3.7257172520253984e-06,3.167882971994267e-14,8.502746606098791e-09,0.012026034318151187,367.0,7.0,1.9040000000000001,1.0
3.542535259466472e-06,3.087551374981223e-14,8.715654605640334e-09,0.011934669176879992,367.0,8.0,2.176,1.0
3.3621683476469953e-06,3.007738805943635e-14,8.945830472910713e-09,0.011847913557016542,367.0,9.0,2.4480000000000004,1.0
3.184616516565995e-06,2.9284206620550126e-14,9.19552054955979e-09,0.01176569579908313,367.0,10.0,2.72,1.0
3.009879766224779e-06,2.8495727121628005e-14,9.467397150341829e-09,0.011687944243602014,367.0,11.0,2.992,1.0
2.8379580966218876e-06,2.7711710967883794e-14,9.764665306675928e-09,0.011614587231095494,367.0,12.0,3.2640000000000002,1.0
2.668851507758719e-06,2.6931923281270716e-14,1.0091203352069571e-08,0.01154555310208583,367.0,13.0,3.5360000000000005,1.0
2.5025599996341188e-06,2.6156132900481342e-14,1.0451750569139378e-08,0.011480770197095314,367.0,14.0,3.8080000000000003,1.0
2.3390835722488162e-06,2.5384112380947604e-14,1.0852161368712059e-08,0.011420166856646211,367.0,15.0,4.08,1.0
2.17842222560275e-06,2.4615637994840837e-14,1.1299755256596277e-08,0.011363671421260805,367.0,16.0,4.352,1.0
2.020575959695617e-06,2.3850489731071787e-14,1.1803807531524163e-08,0.011311212231461374,367.0,17.0,4.6240000000000006,1.0
1.8655447745273557e-06,2.3088451295290463e-14,1.2376251489938122e-08,0.011262717627770195,367.0,18.0,4.896000000000001,1.0
1.7133286700985135e-06,2.2329310109886285e-14,1.303270674190165e-08,0.011218115950709545,367.0,19.0,5.168,1.0
1.5639276464086043e-06,2.157285731398814e-14,1.3794025167038862e-08,0.011177335540801702,367.0,20.0,5.44,1.0
1.4173417034577495e-06,2.0818887763464177e-14,1.4688686371588714e-08,0.011140304738568946,367.0,21.0,5.712,1.0
1.2735708412457664e-06,2.0067200030921996e-14,1.5756642175705674e-08,0.011106951884533554,367.0,22.0,5.984,1.0
1.1326150597734155e-06,1.9317596405708526e-14,1.7055747439534395e-08,0.011077205319217798,367.0,23.0,6.256,1.0
9.944743590395412e-07,1.856988289391007e-14,1.867306353865652e-08,0.011050993383143965,367.0,24.0,6.5280000000000005,1.0
8.591487390449949e-07,1.7823869218352332e-14,2.0745964474282805e-08,0.011028244416834329,367.0,25.0,6.800000000000001,1.0
7.266381997897158e-07,1.7079368818600386e-14,2.3504639342582097e-08,0.011008886760811165,367.0,26.0,7.072000000000001,1.0
5.969427412730958e-07,1.633619885095865e-14,2.7366441907172786e-08,0.010992848755596757,367.0,27.0,7.344,1.0
4.700623634959559e-07,1.5594180188470957e-14,3.3174704889142055e-08,0.010980058741713374,367.0,28.0,7.6160000000000005,1.0
3.45997066457475e-07,1.4853137420920507e-14,4.292850680208308e-08,0.010970445059683304,367.0,29.0,7.888000000000001,1.0
2.2474685015868713e-07,1.4112898854829834e-14,6.27946458197974e-08,0.01096393605002881,367.0,30.0,8.16,1.0
1.0631171459822369e-07,1.3373296513460886e-14,1.2579325396078538e-07,0.010960460053272187,367.0,31.0,8.432,1.0
-9.30834022272919e-09,1.2634166136814988e-14,-1.3572952679538686e-06,0.010959945409935706,367.0,32.0,8.704,1.0
-1.2211331430450607e-07,1.1895347181632803e-14,-9.741236858062952e-08,0.010962320460541637,367.0,33.0,8.976,1.0
-2.3210320764747189e-07,1.1156682821394418e-14,-4.8067766639139506e-08,0.010967513545612269,367.0,34.0,9.248000000000001,1.0
-3.392780202512921e-07,1.0418019946319261e-14,-3.070643933433406e-08,0.010975453005669876,367.0,35.0,9.520000000000001,1.0
-4.436377521161492e-07,9.679209163366126e-15,-2.1817821222825066e-08,0.010986067181236736,367.0,36.0,9.792000000000002,1.0
-5.45182403241587e-07,8.940104796233201e-15,-1.6398373724236962e-08,0.010999284412835122,367.0,37.0,10.064000000000002,1.0
-6.439119736283049e-07,8.200564885358063e-15,-1.2735537187093526e-08,0.01101503304098732,367.0,38.0,10.336,1.0
-7.398264632757557e-07,7.460451187917626e-15,-1.0084055597152776e-08,0.011033241406215602,367.0,39.0,10.608,1.0
6.948951522610291e-06,1.2018189994458668e-13,1.7294968824223683e-08,0.022677661313161398,487.0,1.0,0.272,1.0
6.6605721055724775e-06,1.175086124877292e-13,1.7642420294409424e-08,0.022491888008513993,487.0,2.0,0.544,1.0
6.376394032551356e-06,1.1485241889418769e-13,1.8012126965157505e-08,0.02231414375224559,487.0,3.0,0.8160000000000001,1.0
6.096417303549995e-06,1.1221252424954687e-13,1.840630630455769e-08,0.02214430699618876,487.0,4.0,1.088,1.0
5.820641918565629e-06,1.0958814701620244e-13,1.8827501940405923e-08,0.021982256192176145,487.0,5.0,1.36,1.0
5.549067877599929e-06,1.0697851903336125e-13,1.9278646683203193e-08,0.02182786979204034,487.0,6.0,1.6320000000000001,1.0
5.281695180652411e-06,1.0438288551704107e-13,1.976314079983453e-08,0.02168102624761397,487.0,7.0,1.9040000000000001,1.0
5.018523827722769e-06,1.018005050600708e-13,2.0284950028077144e-08,0.021541604010729645,487.0,8.0,2.176,1.0
4.759553818811975e-06,9.923064963209035e-14,2.084872939977789e-08,0.021409481533219955,487.0,9.0,2.4480000000000004,1.0
4.5047851539186024e-06,9.667260457955062e-14,2.145998117034671e-08,0.02128453726691754,487.0,10.0,2.72,1.0
4.25421783304414e-06,9.412566862571355e-14,2.2125258348221714e-08,0.021166649663654988,487.0,11.0,2.992,1.0
4.007851856187006e-06,9.158915387065221e-14,2.2852429969252502e-08,0.021055697175264936,487.0,12.0,3.2640000000000002,1.0
3.765687223348844e-06,8.906238579125052e-14,2.365103114221125e-08,0.020951558253579975,487.0,13.0,3.5360000000000005,1.0
3.5277239345282833e-06,8.654470324120362e-14,2.453273125885235e-08,0.020854111350432726,487.0,14.0,3.8080000000000003,1.0
3.2939619897262386e-06,8.403545845101754e-14,2.551196969276556e-08,0.0207632349176558,487.0,15.0,4.08,1.0
