dI/dz, Integral_trapz, Conc.(mol/cm^3), D(cm^2/sec), Time(sec), Position(element), depth(μm), crystal
-6.395220054134156e-08,1.0199998435254758e-15,-1.59494096354996e-08,0.0005652258919085606,7.0,99.0,0.20400000000000001,2.0
-6.392886665110632e-08,9.963715583898384e-16,-1.0126166231787986e-06,0.0005657097484154709,7.0,98.0,0.40800000000000003,2.0
-6.387273046480555e-08,9.729864338734845e-16,-4.1657843286788903e-07,0.0005662206977933698,7.0,97.0,0.6120000000000001,2.0
-6.378379198246206e-08,9.498332701709319e-16,-2.603278478840326e-07,0.0005667577452213418,7.0,96.0,0.8160000000000001,2.0
-6.366205120403531e-08,9.269010400766585e-16,-1.8836934008986715e-07,0.0005673198958784703,7.0,95.0,1.02,2.0
-6.350750812958613e-08,9.041788889851015e-16,-1.4702794785559227e-07,0.0005679061549438402,7.0,94.0,1.2240000000000002,2.0
-6.332016275905115e-08,8.81656134890657e-16,-1.2022049987212837e-07,0.000568515527596535,7.0,93.0,1.428,2.0
-6.310001509246841e-08,8.593222683876794e-16,-1.0144948093094275e-07,0.0005691470190156392,7.0,92.0,1.6320000000000001,2.0
-6.28470651298328e-08,8.371669526704838e-16,-8.758774062011736e-08,0.0005697996343802367,7.0,91.0,1.836,2.0
-6.256131287114183e-08,8.151800235333431e-16,-7.694402570206196e-08,0.0005704723788694118,7.0,90.0,2.04,2.0
-6.224275831637265e-08,7.933514893704908e-16,-6.852369189531428e-08,0.0005711642576622483,7.0,89.0,2.244,2.0
-6.189140146557595e-08,7.716715311761178e-16,-6.170353059920164e-08,0.0005718742759378307,7.0,88.0,2.4480000000000004,2.0
-6.150724231869856e-08,7.501305025443735e-16,-5.607318947586853e-08,0.0005726014388752428,7.0,87.0,2.652,2.0
-6.109028087577337e-08,7.287189296693686e-16,-5.1351445651166664e-08,0.000573344751653569,7.0,86.0,2.856,2.0
-6.064051713678774e-08,7.074275113451716e-16,-4.7339117137847345e-08,0.000574103219451893,7.0,85.0,3.06,2.0
-6.015795110175938e-08,6.862471189658094e-16,-4.3891179324541316e-08,0.0005748758474492996,7.0,84.0,3.2640000000000002,2.0
-5.964258277065284e-08,6.651687965252693e-16,-4.0899529847484026e-08,0.0005756616408248723,7.0,83.0,3.4680000000000004,2.0
-5.909441214348586e-08,6.441837606174978e-16,-3.82819415484278e-08,0.0005764596047576952,7.0,82.0,3.672,2.0
-5.851343922029136e-08,6.232834004363988e-16,-3.597475776698461e-08,0.0005772687444268529,7.0,81.0,3.8760000000000003,2.0
-5.78996640010136e-08,6.02459277775837e-16,-3.3927929975840233e-08,0.0005780880650114291,7.0,80.0,4.08,2.0
-5.725308648567793e-08,5.817031270296354e-16,-3.2101565943606994e-08,0.000578916571690508,7.0,79.0,4.284,2.0
-5.657370667430968e-08,5.6100685519157585e-16,-3.0463477853982604e-08,0.000579753269643174,7.0,78.0,4.488,2.0
-5.586152456685563e-08,5.403625418553997e-16,-2.8987408024018888e-08,0.0005805971640485107,7.0,77.0,4.692,2.0
-5.5116540163356354e-08,5.197624392148066e-16,-2.7651723370089436e-08,0.0005814472600856027,7.0,76.0,4.896000000000001,2.0
-5.433875346380168e-08,4.991989720634569e-16,-2.643844020876606e-08,0.0005823025629335337,7.0,75.0,5.1000000000000005,2.0
-5.352816446819163e-08,4.786647377949682e-16,-2.533248585867437e-08,0.0005831620777713883,7.0,74.0,5.304,2.0
-5.268477317651606e-08,4.581525064029186e-16,-2.4321132544892492e-08,0.0005840248097782501,7.0,73.0,5.508000000000001,2.0
-5.180857958878257e-08,4.3765522048084486e-16,-2.339355846588137e-08,0.0005848897641332037,7.0,72.0,5.712,2.0
-5.089958370499624e-08,4.171659952222423e-16,-2.254050389453542e-08,0.0005857559460153328,7.0,71.0,5.916,2.0
-4.9957785525149446e-08,3.9667811842056583e-16,-2.1753999147682968e-08,0.0005866223606037214,7.0,70.0,6.12,2.0
-4.898318504925742e-08,3.761850504692285e-16,-2.1027147490955795e-08,0.0005874880130774543,7.0,69.0,6.324000000000001,2.0
-4.797578227729733e-08,3.556804243616038e-16,-2.0353950453927258e-08,0.0005883519086156151,7.0,68.0,6.5280000000000005,2.0
-4.6935577209279334e-08,3.351580456910236e-16,-1.972916620151018e-08,0.0005892130523972881,7.0,67.0,6.732000000000001,2.0
-4.5862569845193274e-08,3.1461189265077893e-16,-1.9148193878189234e-08,0.0005900704496015571,7.0,66.0,6.936000000000001,2.0
-4.4756760185084783e-08,2.9403611603411963e-16,-1.8606978541533636e-08,0.0005909231054075068,7.0,65.0,7.14,2.0
-4.3618148228880354e-08,2.7342503923425513e-16,-1.8101932521920523e-08,0.0005917700249942207,7.0,64.0,7.344,2.0
-4.244673397664082e-08,2.5277315824435336e-16,-1.762987000578069e-08,0.0005926102135407832,7.0,63.0,7.548,2.0
-4.124251742833576e-08,2.320751416575419e-16,-1.7187952296407175e-08,0.0005934426762262784,7.0,62.0,7.752000000000001,2.0
-4.0005498583977866e-08,2.1132583066690704e-16,-1.6773641796382888e-08,0.0005942664182297905,7.0,61.0,7.956,2.0
-3.873567744355951e-08,1.905202390654941e-16,-1.638466311449058e-08,0.0005950804447304035,7.0,60.0,8.16,2.0
-3.7433054007085774e-08,1.696535532463075e-16,-1.601897005298296e-08,0.0005958837609072016,7.0,59.0,8.364,2.0
-3.6097628274541454e-08,1.4872113220231116e-16,-1.5674717458165844e-08,0.0005966753719392685,7.0,58.0,8.568,2.0
-3.472940024596455e-08,1.277185075264272e-16,-1.5350237122191432e-08,0.000597454283005689,7.0,57.0,8.772,2.0
-3.332836992131707e-08,1.066413834115375e-16,-1.504401706664912e-08,0.0005982194992855469,7.0,56.0,8.976,2.0
-3.18945373006142e-08,8.548563665048303e-17,-1.475468367478197e-08,0.0005989700259579262,7.0,55.0,9.180000000000001,2.0
-3.0427902383840744e-08,6.424731663606361e-17,-1.448098621649003e-08,0.0005997048682019111,7.0,54.0,9.384,2.0
-2.8928465171037246e-08,4.292264536103812e-17,-1.4221783408426117e-08,0.0006004230311965859,7.0,53.0,9.588000000000001,2.0
-2.739622566214289e-08,2.1508017418124552e-17,-1.397603169648465e-08,0.0006011235201210343,7.0,52.0,9.792000000000002,2.0
-2.5831183857215954e-08,0.0,-1.3742775017520147e-08,0.0006018053401543406,7.0,51.0,9.996,2.0
6.883370904576008e-08,3.381714435721756e-15,4.912875512016387e-08,0.0009536708094375181,127.0,99.0,0.20400000000000001,2.0
6.375633648746244e-08,3.3039166294519666e-15,1.5322453764526137e-08,0.0009509879759638959,127.0,98.0,0.40800000000000003,2.0
5.87767259825414e-08,3.2267438231623396e-15,1.54977595563673e-08,0.0009484497980196291,127.0,97.0,0.6120000000000001,2.0
5.3894877530989355e-08,3.150172513999743e-15,1.56849008981942e-08,0.0009460538985803327,127.0,96.0,0.8160000000000001,2.0
4.911079113281392e-08,3.0741794770719624e-15,1.588454526171661e-08,0.000943797900621622,127.0,95.0,1.02,2.0
4.442446678799733e-08,2.998741765447704e-15,1.6097415815381568e-08,0.0009416794271191118,127.0,94.0,1.2240000000000002,2.0
3.9835904496559886e-08,2.9238367101565905e-15,1.63242973579963e-08,0.0009396961010484175,127.0,93.0,1.428,2.0
3.534510425848637e-08,2.849441920189162e-15,1.656604302651922e-08,0.0009378455453851543,127.0,92.0,1.6320000000000001,2.0
3.0952066073791974e-08,2.7755352824968743e-15,1.682358190051309e-08,0.000936125383104937,127.0,91.0,1.836,2.0
2.6656789942446312e-08,2.7020949619921033e-15,1.709792764400527e-08,0.0009345332371833813,127.0,90.0,2.04,2.0
2.245927586449245e-08,2.6290994015481405e-15,1.7390188356329608e-08,0.0009330667305961018,127.0,89.0,2.244,2.0
1.8359523839894918e-08,2.5565273219991974e-15,1.770157783044631e-08,0.0009317234863187138,127.0,88.0,2.4480000000000004,2.0
1.4357533868679055e-08,2.484357722140403e-15,1.803342846380705e-08,0.0009305011273268324,127.0,87.0,2.652,2.0
1.0453305950824582e-08,2.4125698787278006e-15,1.8387206106566797e-08,0.0009293972765960726,127.0,86.0,2.856,2.0
6.646840086354313e-09,2.3411433464783555e-15,1.876452719992675e-08,0.0009284095571020495,127.0,85.0,3.06,2.0
2.938136275220096e-09,2.2700579580699485e-15,1.9167178623160878e-08,0.0009275355918203788,127.0,84.0,3.2640000000000002,2.0
-6.728054825172479e-10,2.199293824141378e-15,1.9597140767208587e-08,0.0009267730037266752,127.0,83.0,3.4680000000000004,2.0
-4.18598518687546e-09,2.1288313332923608e-15,2.0056614457155836e-08,0.0009261194157965536,127.0,82.0,3.672,2.0
-7.60140283789762e-09,2.0586511520835306e-15,2.054805250181535e-08,0.0009255724510056298,127.0,81.0,3.8760000000000003,2.0
-1.091905843552037e-08,1.9887342250364378e-15,2.107419682054744e-08,0.0009251297323295181,127.0,80.0,4.08,2.0
-1.4138951979781729e-08,1.919061774633552e-15,2.1638122330801605e-08,0.0009247888827438341,127.0,79.0,4.284,2.0
-1.7261083470689295e-08,1.849615301318261e-15,2.2243289085529147e-08,0.0009245475252241932,127.0,78.0,4.488,2.0
-2.0285452908194918e-08,1.7803765834948693e-15,2.289360451959103e-08,0.0009244032827462098,127.0,77.0,4.692,2.0
-2.3212060292351816e-08,1.7113276775285995e-15,2.3593498171317415e-08,0.0009243537782854994,127.0,76.0,4.896000000000001,2.0
-2.6040905623139724e-08,1.6424509177455903e-15,2.434801190202409e-08,0.0009243966348176773,127.0,75.0,5.1000000000000005,2.0
-2.8771988900553562e-08,1.5737289164328998e-15,2.516290948761029e-08,0.0009245294753183583,127.0,74.0,5.304,2.0
-3.140531012458827e-08,1.5051445638385027e-15,2.604481062485565e-08,0.0009247499227631577,127.0,73.0,5.508000000000001,2.0
-3.394086929527425e-08,1.436681028171292e-15,2.7001355937076555e-08,0.0009250556001276909,127.0,72.0,5.712,2.0
-3.637866641257096e-08,1.3683217556010785e-15,2.804141168483191e-08,0.0009254441303875724,127.0,71.0,5.916,2.0
-3.871870147649361e-08,1.3000504702585894e-15,2.917532578680441e-08,0.0009259131365184174,127.0,70.0,6.12,2.0
-4.096097448707767e-08,1.2318511742354716e-15,3.041525081968208e-08,0.0009264602414958419,127.0,69.0,6.324000000000001,2.0
-4.310548544426232e-08,1.1637081475842879e-15,3.177555536514626e-08,0.0009270830682954601,127.0,68.0,6.5280000000000005,2.0
-4.5152234348090646e-08,1.0956059483185191e-15,3.327335323760897e-08,0.0009277792398928877,127.0,67.0,6.732000000000001,2.0
-4.710122119852717e-08,1.0275294124125645e-15,3.4929192000811666e-08,0.000928546379263739,127.0,66.0,6.936000000000001,2.0
-4.895244599563525e-08,9.594636538017398e-16,3.6767959632538866e-08,0.0009293821093836303,127.0,65.0,7.14,2.0
-5.0705908739338844e-08,8.913940643822789e-16,3.8820094503797115e-08,0.0009302840532281757,127.0,64.0,7.344,2.0
-5.236160942967091e-08,8.233063140113338e-16,4.112322400330066e-08,0.0009312498337729906,127.0,63.0,7.548,2.0
-5.391954806665932e-08,7.551863505069734e-16,4.3724420132515866e-08,0.0009322770739936906,127.0,62.0,7.752000000000001,2.0
-5.537972465026607e-08,6.870203996481852e-16,4.668336119348865e-08,0.0009333633968658906,127.0,61.0,7.956,2.0
-5.674213918049621e-08,6.187949651748734e-16,5.007685470132726e-08,0.0009345064253652054,127.0,60.0,8.16,2.0
-5.8006791657364967e-08,5.504968287878605e-16,5.400545812879531e-08,0.0009357037824672505,127.0,59.0,8.364,2.0
-5.917368208084698e-08,4.821130501488861e-16,5.8603427762237094e-08,0.0009369530911476407,127.0,58.0,8.568,2.0
-6.024281045097774e-08,4.1363096688060777e-16,6.405412594177336e-08,0.0009382519743819913,127.0,57.0,8.772,2.0
-6.121417676774203e-08,3.450381945666007e-16,7.061473218723027e-08,0.0009395980551459176,127.0,56.0,8.976,2.0
-6.208778103112466e-08,2.7632262675135773e-16,7.865754632329077e-08,0.0009409889564150345,127.0,55.0,9.180000000000001,2.0
-6.286362324112815e-08,2.074724349402892e-16,8.87425186762637e-08,0.000942422301164957,127.0,54.0,9.384,2.0
-6.354170339778292e-08,1.3847606859972326e-16,1.0175252241704166e-07,0.0009438957123713004,127.0,53.0,9.588000000000001,2.0
-6.412202150105349e-08,6.932225515690574e-17,1.1916535612637029e-07,0.0009454068130096801,127.0,52.0,9.792000000000002,2.0
-6.460457755096265e-08,0.0,1.4365637975102613e-07,0.0009469532260557109,127.0,51.0,9.996,2.0
3.5930858704343587e-07,5.874178470359046e-15,1.634856132633683e-08,0.0016537755868829072,247.0,99.0,0.20400000000000001,2.0
3.451143512978288e-07,5.734044840046688e-15,9.872573122207534e-09,0.0016445553131330636,247.0,98.0,0.40800000000000003,2.0
3.3110454025553713e-07,5.595206392209428e-15,9.910087110964334e-09,0.0016356735868339487,247.0,97.0,0.6120000000000001,2.0
3.172791539166471e-07,5.45762429677554e-15,9.951410547340482e-09,0.0016271264241414093,247.0,96.0,0.8160000000000001,2.0
3.0363819228108756e-07,5.321260046804524e-15,9.99667425319482e-09,0.0016189098412112942,247.0,95.0,1.02,2.0
2.901816553488434e-07,5.1860754584870966e-15,1.0046016222309195e-08,0.0016110198541994538,247.0,94.0,1.2240000000000002,2.0
2.7690954311999576e-07,5.052032671145201e-15,1.00995821185528e-08,0.0016034524792617343,247.0,93.0,1.428,2.0
2.638218555944737e-07,4.919094147232e-15,1.0157525816074081e-08,0.001596203732553985,247.0,92.0,1.6320000000000001,2.0
2.5091859277230246e-07,4.787222672331881e-15,1.0220009986429852e-08,0.0015892696302320548,247.0,91.0,1.836,2.0
2.3819975465349223e-07,4.6563813551604534e-15,1.0287206736118654e-08,0.0015826461884517916,247.0,90.0,2.04,2.0
2.2566534123805318e-07,4.5265336275645505e-15,1.0359298300785679e-08,0.0015763294233690427,247.0,89.0,2.244,2.0
2.1331535252590416e-07,4.397643244522227e-15,1.0436477801435613e-08,0.0015703153511396593,247.0,88.0,2.4480000000000004,2.0
2.0114978851716176e-07,4.26967428414276e-15,1.0518950069845202e-08,0.0015645999879194876,247.0,87.0,2.652,2.0
1.8916864921173475e-07,4.142591147666649e-15,1.0606932549273253e-08,0.0015591793498643774,247.0,86.0,2.856,2.0
1.773719346097093e-07,4.016358559465616e-15,1.070065628097497e-08,0.0015540494531301754,247.0,85.0,3.06,2.0
1.6575964471095364e-07,3.890941567042609e-15,1.0800366983298115e-08,0.0015492063138727325,247.0,84.0,3.2640000000000002,2.0
1.543317795156046e-07,3.766305541031794e-15,1.0906326236814555e-08,0.0015446459482478954,247.0,83.0,3.4680000000000004,2.0
1.4308833902360133e-07,3.642416175198561e-15,1.1018812784338378e-08,0.001540364372411513,247.0,82.0,3.672,2.0
1.320293232349287e-07,3.5192394864395217e-15,1.1138123962640917e-08,0.001536357602519434,247.0,81.0,3.8760000000000003,2.0
1.2115473214964238e-07,3.3967418147825167e-15,1.1264577278933135e-08,0.0015326216547275062,247.0,80.0,4.08,2.0
1.1046456576765629e-07,3.274889823386602e-15,1.1398512150498103e-08,0.0015291525451915792,247.0,79.0,4.284,2.0
9.995882408904132e-08,3.1536504985420566e-15,1.1540291828356557e-08,0.0015259462900675006,247.0,78.0,4.488,2.0
8.963750711380763e-08,3.0329911496703853e-15,1.1690305526048383e-08,0.0015229989055111188,247.0,77.0,4.692,2.0
7.950061484189949e-08,2.9128794093243156e-15,1.1848970781600315e-08,0.0015203064076782823,247.0,76.0,4.896000000000001,2.0
6.954814727332701e-08,2.7932832331877957e-15,1.2016736082032176e-08,0.00151786481272484,247.0,75.0,5.1000000000000005,2.0
5.978010440812565e-08,2.6741709000759966e-15,1.219408378480163e-08,0.0015156701368066402,247.0,74.0,5.304,2.0
5.0196486246270116e-08,2.555511011935312e-15,1.2381533376712738e-08,0.0015137183960795312,247.0,73.0,5.508000000000001,2.0
4.079729278775532e-08,2.4372724938433593e-15,1.2579645116766844e-08,0.0015120056066993616,247.0,72.0,5.712,2.0
3.1582524032611655e-08,2.319424594008977e-15,1.2789024116161341e-08,0.0015105277848219795,247.0,71.0,5.916,2.0
2.2552179980803666e-08,2.201936883772228e-15,1.3010324918154846e-08,0.001509280946603234,247.0,70.0,6.12,2.0
1.3706260632331341e-08,2.084779257604396e-15,1.3244256651295958e-08,0.0015082611081989731,247.0,69.0,6.324000000000001,2.0
5.044765987240297e-09,1.9679219331079888e-15,1.3491588840574619e-08,0.0015074642857650453,247.0,68.0,6.5280000000000005,2.0
-3.43230395451508e-09,1.851335451016736e-15,1.3753157977025131e-08,0.001506886495457299,247.0,67.0,6.732000000000001,2.0
-1.172494919290945e-08,1.7349906751955889e-15,1.4029874964683013e-08,0.0015065237534315828,247.0,66.0,6.936000000000001,2.0
-1.983316972797829e-08,1.6188587926407236e-15,1.4322733582859967e-08,0.001506372075843745,247.0,65.0,7.14,2.0
-2.775696555967598e-08,1.5029113134795378e-15,1.4632820131149665e-08,0.0015064274788496345,247.0,64.0,7.344,2.0
-3.5496336688017735e-08,1.3871200709706517e-15,1.496132445242947e-08,0.0015066859786050993,247.0,63.0,7.548,2.0
-4.305128311303396e-08,1.2714572215039078e-15,1.5309552571247452e-08,0.001507143591265988,247.0,62.0,7.752000000000001,2.0
-5.042180483468411e-08,1.1558952446003713e-15,1.567894122936847e-08,0.001507796332988149,247.0,61.0,7.956,2.0
-5.760790185298339e-08,1.0404069429123305e-15,1.6071074659018903e-08,0.001508640219927431,247.0,60.0,8.16,2.0
-6.4609574167947e-08,9.249654422232963e-16,1.6487704007843744e-08,0.0015096712682396826,247.0,59.0,8.364,2.0
-7.142682177952933e-08,8.095441914480017e-16,1.693076991646849e-08,0.0015108854940807514,247.0,58.0,8.568,2.0
-7.805964468778613e-08,6.94116962632403e-16,1.7402428862062687e-08,0.0015122789136064866,247.0,57.0,8.772,2.0
-8.450804289267685e-08,5.786578509536784e-16,1.7905084023991527e-08,0.001513847542972736,247.0,56.0,8.976,2.0
-9.077201639424711e-08,4.631412747202292e-16,1.844142159996229e-08,0.001515587398335349,247.0,55.0,9.180000000000001,2.0
-9.685156519243102e-08,3.4754197537167917e-16,1.9014453734310355e-08,0.0015174944958501735,247.0,54.0,9.384,2.0
-1.027466892872742e-07,2.318350174788744e-16,1.9627569501721028e-08,0.0015195648516730578,247.0,53.0,9.588000000000001,2.0
-1.0845738867878677e-07,1.159957887438842e-16,2.0284595772481772e-08,0.0015217944819598509,247.0,52.0,9.792000000000002,2.0
-1.1398366336693834e-07,0.0,2.0989870263340544e-08,0.0015241794028664011,247.0,51.0,9.996,2.0
9.127245745450506e-07,7.398245709383069e-15,8.105671651353026e-09,0.0025972731520255525,367.0,99.0,0.20400000000000001,2.0
8.832074943662647e-07,7.209717253403124e-15,6.387097058314088e-09,0.0025760313094754634,367.0,98.0,0.40800000000000003,2.0
8.539997623425568e-07,7.023573122598432e-15,6.373111430000766e-09,0.0025554583037364857,367.0,97.0,0.6120000000000001,2.0
8.251013784738763e-07,6.83974716749533e-15,6.361115415257827e-09,0.0025355474491333945,367.0,96.0,0.8160000000000001,2.0
7.965123427602635e-07,6.658173781957984e-15,6.351154594937569e-09,0.0025162920599909617,367.0,95.0,1.02,2.0
7.682326552015971e-07,6.478787903188399e-15,6.3432765442492185e-09,0.002497685450633963,367.0,94.0,1.2240000000000002,2.0
7.402623157980595e-07,6.301525011726421e-15,6.3375309432090255e-09,0.00247972093538717,367.0,93.0,1.428,2.0
7.126013245495088e-07,6.1263211314497294e-15,6.333969694085758e-09,0.0024623918285753576,367.0,92.0,1.6320000000000001,2.0
6.852496814559751e-07,5.953112829573849e-15,6.332647047329641e-09,0.0024456914445232995,367.0,91.0,1.836,2.0
6.582073865175298e-07,5.781837216652136e-15,6.333619735735359e-09,0.0024296130975557688,367.0,90.0,2.04,2.0
6.314744397341322e-07,5.612431946575786e-15,6.336947118061741e-09,0.0024141501019975388,367.0,89.0,2.244,2.0
6.050508411057213e-07,5.444835216573837e-15,6.342691332805338e-09,0.0023992957721733826,367.0,88.0,2.4480000000000004,2.0
5.789365906323682e-07,5.278985767213162e-15,6.350917462858342e-09,0.002385043422408075,367.0,87.0,2.652,2.0
5.531316883139968e-07,5.1148228823984724e-15,6.361693711888877e-09,0.002371386367026391,367.0,86.0,2.856,2.0
5.276361341507898e-07,4.952286389372321e-15,6.375091593839909e-09,0.0023583179203531006,367.0,85.0,3.06,2.0
5.024499281424681e-07,4.791316658715094e-15,6.391186135936554e-09,0.0023458313967129807,367.0,84.0,3.2640000000000002,2.0
4.775730702893006e-07,4.631854604345017e-15,6.410056097569932e-09,0.002333920110430802,367.0,83.0,3.4680000000000004,2.0
4.5300556059110977e-07,4.473841683518161e-15,6.431784204749584e-09,0.00232257737583134,367.0,82.0,3.672,2.0
4.2874739904797665e-07,4.317219896828422e-15,6.456457403470232e-09,0.002311796507239368,367.0,81.0,3.8760000000000003,2.0
4.0479858565989634e-07,4.161931788207543e-15,6.484167131978594e-09,0.002301570818979659,367.0,80.0,4.08,2.0
3.8115912042677744e-07,4.007920444925106e-15,6.5150096147973294e-09,0.002291893625376988,367.0,79.0,4.284,2.0
3.5782900334876196e-07,3.8551294975885296e-15,6.549086180135591e-09,0.0022827582407561275,367.0,78.0,4.488,2.0
3.3480823442579925e-07,3.703503120143069e-15,6.586503602588898e-09,0.0022741579794418503,367.0,77.0,4.692,2.0
3.1209681365780814e-07,3.552986029871819e-15,6.627374474228633e-09,0.002266086155758932,367.0,76.0,4.896000000000001,2.0
