dI/dz, Integral_trapz, Conc.(mol/cm^3), D(cm^2/sec), Time(sec), Position(element), depth(μm), crystal
8.026215461289112e-07,4.198447916215671e-15,5.23091852749907e-09,0.0019844332940557657,17.0,99.0,0.6188000000000001,3.0
7.807663056014483e-07,4.0229749925270456e-15,8.028871769593624e-09,0.0019379482686433017,17.0,98.0,1.2376000000000003,3.0
7.590994054796682e-07,3.854270539852739e-15,7.786275458237846e-09,0.00189278660751386,17.0,97.0,1.8564000000000005,3.0
7.376208457636045e-07,3.692104274838337e-15,7.550146153101592e-09,0.0018489360472918612,17.0,96.0,2.4752000000000005,3.0
7.163306264532219e-07,3.536248855839875e-15,7.320517310146081e-09,0.0018063843246017297,17.0,95.0,3.0940000000000003,3.0
6.952287475485105e-07,3.3864798829237987e-15,7.0974235797854785e-09,0.0017651191760678889,17.0,94.0,3.712800000000001,3.0
6.743152090495254e-07,3.242575897866992e-15,6.880900860645379e-09,0.0017251283383147608,17.0,93.0,4.331600000000001,3.0
6.535900109562233e-07,3.1043183841567517e-15,6.670986356213487e-09,0.0016863995479667682,17.0,92.0,4.950400000000001,3.0
6.330531532686057e-07,2.9714917669908e-15,6.467718634776238e-09,0.001648920541648335,17.0,91.0,5.5692,3.0
6.127046359866877e-07,2.8438834132772995e-15,6.271137692518503e-09,0.0016126790559838839,17.0,90.0,6.188000000000001,3.0
5.925444591104725e-07,2.7212836316348094e-15,6.081285020228802e-09,0.0015776628275978367,17.0,89.0,6.8068,3.0
5.72572622639942e-07,2.6034856723923347e-15,5.8982036737728925e-09,0.0015438595931146176,17.0,88.0,7.425600000000002,3.0
5.527891265751027e-07,2.490285727589294e-15,5.721938348613127e-09,0.0015112570891586492,17.0,87.0,8.044400000000001,3.0
5.331939709159529e-07,2.3814829309755386e-15,5.5525354585765065e-09,0.0014798430523543546,17.0,86.0,8.663200000000002,3.0
5.137871556625161e-07,2.2768793580113327e-15,5.3900432192593375e-09,0.0014496052193261558,17.0,85.0,9.282000000000002,3.0
4.945686808147488e-07,2.176280025867371e-15,5.234511736275934e-09,0.0014205313266984776,17.0,84.0,9.900800000000002,3.0
4.755385463726927e-07,2.079492893424777e-15,5.085993098855728e-09,0.0013926091110957413,17.0,83.0,10.519600000000002,3.0
4.5669675233632293e-07,1.986328861275091e-15,4.944541478898144e-09,0.0013658263091423704,17.0,82.0,11.1384,3.0
4.3804329870564935e-07,1.8966017717202762e-15,4.810213236184225e-09,0.0013401706574627875,17.0,81.0,11.757200000000001,3.0
4.195781854806637e-07,1.8101284087727265e-15,4.683067029913486e-09,0.0013156298926814164,17.0,80.0,12.376000000000001,3.0
4.013014126613792e-07,1.7267284981552533e-15,4.563163937206401e-09,0.0012921917514226795,17.0,79.0,12.9948,3.0
3.832129802477877e-07,1.6462247073010967e-15,4.450567578960941e-09,0.0012698439703109994,17.0,78.0,13.6136,3.0
3.6531288823988415e-07,1.568442645353922e-15,4.345344253696071e-09,0.0012485742859707995,17.0,77.0,14.2324,3.0
3.4760113663767e-07,1.4932108631678144e-15,4.247563079910344e-09,0.001228370435026503,17.0,76.0,14.851200000000004,3.0
3.300777254411639e-07,1.4203608533072857e-15,4.15729614762757e-09,0.0012092201541025322,17.0,75.0,15.470000000000004,3.0
3.127426546503457e-07,1.3497270500472755e-15,4.0746186798050125e-09,0.0011911111798233104,17.0,74.0,16.088800000000003,3.0
2.9559592426521365e-07,1.281146829373133e-15,3.999609204423524e-09,0.0011740312488132607,17.0,73.0,16.707600000000003,3.0
2.7863753428578623e-07,1.2144605089806492e-15,3.932349737998849e-09,0.0011579680976968052,17.0,72.0,17.326400000000003,3.0
2.6186748471204166e-07,1.149511348276028e-15,3.872925981465582e-09,0.0011429094630983681,17.0,71.0,17.945200000000003,3.0
2.452857755440017e-07,1.086145548375903e-15,3.821427529452638e-09,0.0011288430816423715,17.0,70.0,18.564000000000004,3.0
2.2889240678164296e-07,1.0242122521073272e-15,3.777948093913586e-09,0.0011157566899532387,17.0,69.0,19.182800000000004,3.0
2.1268737842499047e-07,9.63563544007784e-16,3.7425857434335064e-09,0.0011036380246553922,17.0,68.0,19.801600000000004,3.0
1.9667069047402255e-07,9.040544503251757e-16,3.7154431593338232e-09,0.0010924748223732556,17.0,67.0,20.4204,3.0
1.8084234292875587e-07,8.455429390178283e-16,3.6966279101474953e-09,0.001082254819731251,17.0,66.0,21.039200000000005,3.0
1.652023357891704e-07,7.87889919754499e-16,3.686252745844809e-09,0.0010729657533538022,17.0,65.0,21.658,3.0
1.4975066905529287e-07,7.309592439143596e-16,3.6844359136558285e-09,0.0010645953598653315,17.0,64.0,22.2768,3.0
1.3448734272709989e-07,6.746177045870117e-16,3.691301497189313e-09,0.0010571313758902625,17.0,63.0,22.895600000000005,3.0
1.1941235680460314e-07,6.187350365724808e-16,3.706979781064733e-09,0.0010505615380530177,17.0,62.0,23.514400000000002,3.0
1.0452571128779596e-07,5.631839163812147e-16,3.731607643142193e-09,0.0010448735829780202,17.0,61.0,24.133200000000002,3.0
8.982740617669003e-08,5.078399622340847e-16,3.765328976965681e-09,0.0010400552472896926,17.0,60.0,24.752000000000002,3.0
7.5317441471272e-08,4.525817340623891e-16,3.8082951470627725e-09,0.0010360942676124582,17.0,59.0,25.370800000000006,3.0
6.099581717155355e-08,3.9729073350784885e-16,3.860665480215625e-09,0.0010329783805707398,17.0,58.0,25.9896,3.0
4.686253327751965e-08,3.4185140392260707e-16,3.922607795959187e-09,0.0010306953227889606,17.0,57.0,26.608400000000003,3.0
3.291758978918701e-08,2.8615113036923386e-16,3.994298980126821e-09,0.0010292328308915432,17.0,56.0,27.2272,3.0
1.916098670654058e-08,2.3008023962072227e-16,4.075925605445681e-09,0.001028578641502911,17.0,55.0,27.846000000000004,3.0
5.592724029595408e-09,1.7353200016049024e-16,4.167684603889434e-09,0.001028720491247486,17.0,54.0,28.4648,3.0
-7.787198241661874e-09,1.1640262218237815e-16,4.2697839957439284e-09,0.0010296461167496923,17.0,53.0,29.083600000000004,3.0
-2.0978780107217902e-08,5.859125759065157e-17,4.3824436811990945e-09,0.001031343254633952,17.0,52.0,29.702400000000008,3.0
-3.398202156708938e-08,0.0,4.505896300662148e-09,0.0010337996415246886,17.0,51.0,30.321200000000005,3.0
1.151867519493813e-06,1.151485309263332e-14,9.996681821268396e-09,0.0027279062198715897,137.0,99.0,0.6188000000000001,3.0
1.1197386949697526e-06,1.1068706705485623e-14,1.3886172113567067e-08,0.0026572434417080956,137.0,98.0,1.2376000000000003,3.0
1.0878997349248425e-06,1.063710010973186e-14,1.3555926297371692e-08,0.002588588312340041,137.0,97.0,1.8564000000000005,3.0
1.056350639359063e-06,1.0219617658561287e-14,1.3232786667374534e-08,0.0025219227693292975,137.0,96.0,2.4752000000000005,3.0
1.0250914082724303e-06,9.815847242608076e-15,1.2916837744159191e-08,0.002457228750237732,137.0,95.0,3.0940000000000003,3.0
9.941220416648982e-07,9.425380289951358e-15,1.2608167212620741e-08,0.0023944881926272156,137.0,94.0,3.712800000000001,3.0
9.634425395365363e-07,9.047811766115192e-15,1.2306866071569006e-08,0.0023336830340596154,137.0,93.0,4.331600000000001,3.0
9.330529018872883e-07,8.682740174068588e-15,1.2013028791596641e-08,0.002274795212096803,137.0,92.0,4.950400000000001,3.0
9.029531287171706e-07,8.329767554225499e-15,1.1726753482431909e-08,0.0022178066643006454,137.0,91.0,5.5692,3.0
8.731432200262066e-07,7.988499484444811e-15,1.1448142069758601e-08,0.0021626993282330116,137.0,90.0,6.188000000000001,3.0
8.436231758143764e-07,7.658545080030381e-15,1.1177300482571777e-08,0.002109455141455771,137.0,89.0,6.8068,3.0
8.143929960816615e-07,7.339516993730976e-15,1.0914338851715759e-08,0.0020580560415307935,137.0,88.0,7.425600000000002,3.0
7.854526808280986e-07,7.0310314157403285e-15,1.0659371720308739e-08,0.002008483966019947,137.0,87.0,8.044400000000001,3.0
7.568022300536546e-07,6.7327080736971055e-15,1.0412518266879254e-08,0.0019607208524851016,137.0,86.0,8.663200000000002,3.0
7.284416437583625e-07,6.444170232684915e-15,1.0173902542349369e-08,0.0019147486384881254,137.0,85.0,9.282000000000002,3.0
7.003709219421909e-07,6.1650446952323176e-15,9.943653721501114e-09,0.0018705492615908878,137.0,84.0,9.900800000000002,3.0
6.725900646051528e-07,5.89496180131281e-15,9.721906370377801e-09,0.0018281046593552589,137.0,83.0,10.519600000000002,3.0
6.450990717472671e-07,5.63355542834482e-15,9.508800730454737e-09,0.0017873967693431054,137.0,82.0,11.1384,3.0
6.178979433685016e-07,5.380462991191757e-15,9.304483021029352e-09,0.0017484075291162987,137.0,81.0,11.757200000000001,3.0
5.909866794688647e-07,5.135325442161935e-15,9.109105761217329e-09,0.0017111188762367069,137.0,80.0,12.376000000000001,3.0
5.643652800483733e-07,4.8977872710086265e-15,8.922828112877751e-09,0.0016755127482661989,137.0,79.0,12.9948,3.0
5.380337451070207e-07,4.667496504930045e-15,8.745816246242427e-09,0.0016415710827666437,137.0,78.0,13.6136,3.0
5.119920746447934e-07,4.444104708569349e-15,8.578243729975739e-09,0.0016092758172999105,137.0,77.0,14.2324,3.0
4.862402686617033e-07,4.227266984014637e-15,8.420291947566613e-09,0.0015786088894278682,137.0,76.0,14.851200000000004,3.0
4.6077832715774003e-07,4.016641970798956e-15,8.272150542129582e-09,0.001549552236712387,137.0,75.0,15.470000000000004,3.0
4.356062501329256e-07,3.8118918459002845e-15,8.134017892001146e-09,0.0015220877967153342,137.0,74.0,16.088800000000003,3.0
4.107240375872365e-07,3.612682323741566e-15,8.006101619497334e-09,0.0014961975069985797,137.0,73.0,16.707600000000003,3.0
3.8613168952068615e-07,3.418682656190671e-15,7.888619135753325e-09,0.0014718633051239928,137.0,72.0,17.326400000000003,3.0
3.6182920593326453e-07,3.2295656325604135e-15,7.781798224447308e-09,0.0014490671286534421,137.0,71.0,17.945200000000003,3.0
3.37816586824985e-07,3.0450075796085556e-15,7.685877667889311e-09,0.0014277909151487965,137.0,70.0,18.564000000000004,3.0
3.140938321958291e-07,2.8646883615377994e-15,7.601107918940369e-09,0.0014080166021719263,137.0,69.0,19.182800000000004,3.0
2.9066094204582365e-07,2.6882913799957917e-15,7.527751822878181e-09,0.0013897261272846988,137.0,68.0,19.801600000000004,3.0
2.675179163749369e-07,2.515503574075122e-15,7.466085393407833e-09,0.0013729014280489842,137.0,67.0,20.4204,3.0
2.4466475518319556e-07,2.3460154203133267e-15,7.416398647861654e-09,0.0013575244420266513,137.0,66.0,21.039200000000005,3.0
2.2210145847057956e-07,2.179520932692879e-15,7.378996506629915e-09,0.0013435771067795692,137.0,65.0,21.658,3.0
1.9982802623711234e-07,2.015717662641201e-15,7.354199762960351e-09,0.0013310413598696062,137.0,64.0,22.2768,3.0
1.7784445848276376e-07,1.854306699030654e-15,7.3423461293546415e-09,0.0013198991388586323,137.0,63.0,22.895600000000005,3.0
1.561507552075573e-07,1.6949926681785447e-15,7.343791367985934e-09,0.001310132381308516,137.0,62.0,23.514400000000002,3.0
1.3474691641147785e-07,1.5374837338471214e-15,7.358910512831669e-09,0.0013017230247811273,137.0,61.0,24.133200000000002,3.0
1.1363294209454885e-07,1.3814915972435786e-15,7.388099192602959e-09,0.001294653006838334,137.0,60.0,24.752000000000002,3.0
9.280883225673851e-08,1.2267314970200521e-15,7.431775064042764e-09,0.001288904265042006,137.0,59.0,25.370800000000006,3.0
7.22745868980736e-08,1.0729222092736195e-15,7.490379366755212e-09,0.0012844587369540117,137.0,58.0,25.9896,3.0
5.2030206018534037e-08,9.19786047546306e-16,7.56437861145381e-09,0.0012812983601362207,137.0,57.0,26.608400000000003,3.0
3.207568961813656e-08,7.670488628250759e-16,7.6542664155062e-09,0.0012794050721505019,137.0,56.0,27.2272,3.0
1.2411037696862767e-08,6.144400435418376e-16,7.760565500686111e-09,0.0012787608105587246,137.0,55.0,27.846000000000004,3.0
-6.963749745252242e-09,4.61692515573444e-16,7.883829870379177e-09,0.0012793475129227565,137.0,54.0,28.4648,3.0
-2.604867270826695e-08,3.0854274224169014e-16,8.024647185034371e-09,0.001281147116804469,137.0,53.0,29.083600000000004,3.0
-4.484373119212288e-08,1.5473072431331474e-16,8.18364135767349e-09,0.0012841415597657294,137.0,52.0,29.702400000000008,3.0
-6.334892519684843e-08,0.0,8.361475393005993e-09,0.0012883127793684068,137.0,51.0,30.321200000000005,3.0
1.8288740223533592e-06,2.4801105127569223e-14,1.3560860302261633e-08,0.004283526393470869,257.0,99.0,0.6188000000000001,3.0
1.7803745186453686e-06,2.3865878597340987e-14,1.928321856361906e-08,0.004167925210820236,257.0,98.0,1.2376000000000003,3.0
1.7322422497256751e-06,2.2957753421111405e-14,1.8867283770577014e-08,0.0040553520092138735,257.0,97.0,1.8564000000000005,3.0
1.6844772155942387e-06,2.2076107893377155e-14,1.845796917695485e-08,0.003945786430743242,257.0,96.0,2.4752000000000005,3.0
1.6370794162511157e-06,2.1220321708878505e-14,1.8055399118921685e-08,0.0038392081174997983,257.0,95.0,3.0940000000000003,3.0
1.5900488516961996e-06,2.0389775962599295e-14,1.765970181602665e-08,0.0037355967115750045,257.0,94.0,3.712800000000001,3.0
1.5433855219296202e-06,1.9583853149766976e-14,1.7271009524260874e-08,0.0036349318550603156,257.0,93.0,4.331600000000001,3.0
1.4970894269512815e-06,1.8801937165852585e-14,1.6889458695819587e-08,0.003537193190047192,257.0,92.0,4.950400000000001,3.0
1.4511605667612159e-06,1.804341330657076e-14,1.6515190147172296e-08,0.0034423603586270926,257.0,91.0,5.5692,3.0
1.4055989413594376e-06,1.730766826787972e-14,1.6148349234755825e-08,0.003350413002891477,257.0,90.0,6.188000000000001,3.0
1.360404550745933e-06,1.6594090145981302e-14,1.5789086039478377e-08,0.0032613307649318026,257.0,89.0,6.8068,3.0
1.3155773949206982e-06,1.590206843732092e-14,1.5437555560257485e-08,0.0031750932868395278,257.0,88.0,7.425600000000002,3.0
1.2711174738837473e-06,1.5230994038587585e-14,1.509391791711916e-08,0.0030916802107061117,257.0,87.0,8.044400000000001,3.0
1.22702478763505e-06,1.45802592467139e-14,1.4758338564435011e-08,0.0030110711786230145,257.0,86.0,8.663200000000002,3.0
1.1832993361746394e-06,1.394925775887607e-14,1.4430988514987588e-08,0.0029332458326816937,257.0,85.0,9.282000000000002,3.0
1.1399411195024994e-06,1.3337384672493888e-14,1.4112044575286759e-08,0.002858183814973609,257.0,84.0,9.900800000000002,3.0
1.0969501376186294e-06,1.2744036485230744e-14,1.380168959308567e-08,0.002785864767590218,257.0,83.0,10.519600000000002,3.0
1.0543263905230598e-06,1.2168611094993631e-14,1.3500112717610534e-08,0.002716268332622979,257.0,82.0,11.1384,3.0
1.0120698782157338e-06,1.1610507799933116e-14,1.320750967333753e-08,0.002649374152163352,257.0,81.0,11.757200000000001,3.0
9.70180600696688e-07,1.1069127298443378e-14,1.2924083048307239e-08,0.0025851618683027963,257.0,80.0,12.376000000000001,3.0
9.286585579659189e-07,1.0543871689162186e-14,1.2650042597542115e-08,0.00252361112313277,257.0,79.0,12.9948,3.0
8.875037500234337e-07,1.0034144470970909e-14,1.2385605562869661e-08,0.0024647015587447307,257.0,78.0,13.6136,3.0
8.46716176869212e-07,9.5393505429945e-15,1.2130997009935976e-08,0.0024084128172301386,257.0,77.0,14.2324,3.0
8.062958385032705e-07,9.058896204601509e-15,1.1886450183648788e-08,0.002354724540680452,257.0,76.0,14.851200000000004,3.0
7.662427349255876e-07,8.592189155404084e-15,1.1652206883100783e-08,0.0023036163711871297,257.0,75.0,15.470000000000004,3.0
7.265568661362017e-07,8.138638495257969e-15,1.1428517857404653e-08,0.0022550679508416306,257.0,74.0,16.088800000000003,3.0
6.87238232135081e-07,7.697654724262494e-15,1.1215643223589766e-08,0.0022090589217354127,257.0,73.0,16.707600000000003,3.0
6.482868329222273e-07,7.268649742760586e-15,1.1013852908275985e-08,0.002165568925959936,257.0,72.0,17.326400000000003,3.0
6.097026684976621e-07,6.851036851338776e-15,1.0823427114464882e-08,0.0021245776056066576,257.0,71.0,17.945200000000003,3.0
5.714857388613538e-07,6.444230750827183e-15,1.0644656815263967e-08,0.0020860646027670384,257.0,70.0,18.564000000000004,3.0
5.336360440133208e-07,6.047647542299519e-15,1.0477844276418875e-08,0.0020500095595325364,257.0,69.0,19.182800000000004,3.0
4.961535839535848e-07,5.660704727073089e-15,1.0323303609468459e-08,0.0020163921179946085,257.0,68.0,19.801600000000004,3.0
4.590383586821007e-07,5.282821206708801e-15,1.0181361357777303e-08,0.001985191920244716,257.0,67.0,20.4204,3.0
4.2229036819890183e-07,4.913417283011154e-15,1.0052357117773245e-08,0.0019563886083743156,257.0,66.0,21.039200000000005,3.0
3.8590961250395815e-07,4.55191465802823e-15,9.936644197667581e-09,0.0019299618244748686,257.0,65.0,21.658,3.0
3.4989609159732153e-07,4.19773643405172e-15,9.8345903166397e-09,0.001905891210637831,257.0,64.0,22.2768,3.0
3.1424980547893337e-07,3.850307113616906e-15,9.74657834706636e-09,0.0018841564089546632,257.0,63.0,22.895600000000005,3.0
2.789707541488255e-07,3.5090525995026623e-15,9.673007103312035e-09,0.001864737061516824,257.0,62.0,23.514400000000002,3.0
2.440589376069896e-07,3.173400194731459e-15,9.614292180098421e-09,0.0018476128104157714,257.0,61.0,24.133200000000002,3.0
2.0951435585343895e-07,2.8427786025693593e-15,9.570866844497738e-09,0.0018327632977429642,257.0,60.0,24.752000000000002,3.0
1.7533700888815188e-07,2.5166179265260225e-15,9.543182985344317e-09,0.0018201681655898615,257.0,59.0,25.370800000000006,3.0
1.4152689671114005e-07,2.1943496703547033e-15,9.531712124588448e-09,0.0018098070560479225,257.0,58.0,25.9896,3.0
1.0808401932240683e-07,1.8754067380522453e-15,9.536946495217208e-09,0.001801659611208605,257.0,57.0,26.608400000000003,3.0
7.500837672193884e-08,1.5592234338590925e-15,9.559400191023926e-09,0.0017957054731633688,257.0,56.0,27.2272,3.0
4.229996890974612e-08,1.2452354622592816e-15,9.599610393837804e-09,0.0017919242840036724,257.0,55.0,27.846000000000004,3.0
9.958795885857064e-09,9.328799279804436e-16,9.658138684336345e-09,0.0017902956858209728,257.0,54.0,28.4648,3.0
-2.2015142349801844e-08,6.21595335993805e-16,9.735572443168064e-09,0.0017907993207067312,257.0,53.0,29.083600000000004,3.0
-5.362184579716879e-08,3.108215915141857e-16,9.83252634989711e-09,0.0017934148307524056,257.0,52.0,29.702400000000008,3.0
-8.486131445625712e-08,0.0,9.949643987422943e-09,0.0017981218580494548,257.0,51.0,30.321200000000005,3.0
3.016839678763256e-06,4.6798022542489045e-14,1.5512266983200692e-08,0.007156141646517002,377.0,99.0,0.6188000000000001,3.0
2.944472103912327e-06,4.506915836252084e-14,2.389003892322655e-08,0.006963690208307438,377.0,98.0,1.2376000000000003,3.0
2.8724491870469557e-06,4.3386721926183296e-14,2.335973756078825e-08,0.006775745874297879,377.0,97.0,1.8564000000000005,3.0
2.8007709281671102e-06,4.174980954353484e-14,2.2836943980355562e-08,0.006592292944050245,377.0,96.0,2.4752000000000005,3.0
2.7294373272728353e-06,4.015751468356347e-14,2.232180683450069e-08,0.00641331571712645,377.0,95.0,3.0940000000000003,3.0
2.658448384364026e-06,3.8608927974186726e-14,2.1814477662613184e-08,0.0062387984930884184,377.0,94.0,3.712800000000001,3.0
2.5878040994407877e-06,3.710313720225167e-14,2.1315110961505772e-08,0.006068725571498067,377.0,93.0,4.331600000000001,3.0
2.5175044725030878e-06,3.563922731353491e-14,2.0823864257687852e-08,0.005903081251917313,377.0,92.0,4.950400000000001,3.0
2.447549503550893e-06,3.4216280412742595e-14,2.0340898182153658e-08,0.005741849833908076,377.0,91.0,5.5692,3.0
2.377939192584249e-06,3.2833375763510427e-14,1.986637654721634e-08,0.005585015617032274,377.0,90.0,6.188000000000001,3.0
2.308673539603144e-06,3.1489589788403585e-14,1.9400466425595004e-08,0.005432562900851825,377.0,89.0,6.8068,3.0
2.239752544607564e-06,3.0183996068916855e-14,1.8943338231992413e-08,0.005284475984928649,377.0,88.0,7.425600000000002,3.0
2.1711762075975214e-06,2.8915665345474536e-14,1.8495165807071042e-08,0.0051407391688246635,377.0,87.0,8.044400000000001,3.0
2.1029445285730106e-06,2.768366551743048e-14,1.805612650395845e-08,0.005001336752101786,377.0,86.0,8.663200000000002,3.0
2.035057507534025e-06,2.6487061643068042e-14,1.7626401277429175e-08,0.004866253034321937,377.0,85.0,9.282000000000002,3.0
1.9675151444805642e-06,2.5324915939600153e-14,1.720617477579271e-08,0.004735472315047035,377.0,84.0,9.900800000000002,3.0
1.9003174394126515e-06,2.419628778316927e-14,1.6795635435618582e-08,0.004608978893838998,377.0,83.0,10.519600000000002,3.0
1.8334643923302938e-06,2.3100233708847368e-14,1.6394975579372638e-08,0.004486757070259742,377.0,82.0,11.1384,3.0
