dI/dz, Integral_trapz, Conc.(mol/cm^3), D(cm^2/sec), Time(sec), Position(element), depth(μm), crystal
4.7535553773132724e-07,1.552857664380389e-14,3.2667288821153275e-08,0.0027030788624721135,7.0,1.0,0.272,1.0
4.547021156564903e-07,1.516959517271289e-14,1.738121023190448e-08,0.002686270968681116,7.0,2.0,0.544,1.0
4.3428607414031324e-07,1.4813950357612176e-14,1.741987127224998e-08,0.0026701938393998256,7.0,3.0,0.8160000000000001,1.0
4.1410741318275036e-07,1.4461502949797706e-14,1.7466342714994367e-08,0.002654838688733735,7.0,4.0,1.088,1.0
3.9416613278380166e-07,1.4112115485083907e-14,1.7520813996087143e-08,0.0026401967307883374,7.0,5.0,1.36,1.0
3.7446223294346344e-07,1.3765652283803627e-14,1.7583483680270978e-08,0.0026262591796691248,7.0,6.0,1.6320000000000001,1.0
3.549957136617356e-07,1.3421979450808133e-14,1.765456001772648e-08,0.00261301724948159,7.0,7.0,1.9040000000000001,1.0
3.3576657493864105e-07,1.3080964875467142e-14,1.7734261541908074e-08,0.002600462154331225,7.0,8.0,2.176,1.0
3.1677481677413777e-07,1.2742478231668799e-14,1.782281771210599e-08,0.002588585108323523,7.0,9.0,2.4480000000000004,1.0
2.9802043916827545e-07,1.2406390977819647e-14,1.79204696051388e-08,0.002577377325563976,7.0,10.0,2.72,1.0
2.795034421210501e-07,1.2072576356844709e-14,1.8027470659717928e-08,0.0025668300201580757,7.0,11.0,2.992,1.0
2.6122382563239714e-07,1.1740909396187414e-14,1.81440874792519e-08,0.002556934406211316,7.0,12.0,3.2640000000000002,1.0
2.4318158970241926e-07,1.1411266907809603e-14,1.827060069811512e-08,0.0025476816978291877,7.0,13.0,3.5360000000000005,1.0
2.2537673433097954e-07,1.1083527488191572e-14,1.840730591632597e-08,0.0025390631091171856,7.0,14.0,3.8080000000000003,1.0
2.078092595182529e-07,1.0757571518332048e-14,1.855451471166403e-08,0.002531069854180799,7.0,15.0,4.08,1.0
1.904791652640378e-07,1.0433281163748174e-14,1.8712555732638306e-08,0.002523693147125524,7.0,16.0,4.352,1.0
1.7338645156852058e-07,1.0110540374475525e-14,1.8881775885434256e-08,0.002516924202056851,7.0,17.0,4.6240000000000006,1.0
1.5653111843160616e-07,9.789234885068126e-15,1.9062541617982975e-08,0.002510754233080272,7.0,18.0,4.896000000000001,1.0
1.3991316585330216e-07,9.469252214598403e-15,1.9255240316877825e-08,0.00250517445430128,7.0,19.0,5.168,1.0
1.235325938335934e-07,9.150481666657234e-15,1.9460281823957706e-08,0.0025001760798253683,7.0,20.0,5.44,1.0
1.0738940237253303e-07,8.832814329353917e-15,1.9678100087555524e-08,0.0024957503237580288,7.0,21.0,5.712,1.0
9.14835914700793e-08,8.516143075316186e-15,1.9909154961026194e-08,0.0024918884002047537,7.0,22.0,5.984,1.0
7.581516112624738e-08,8.200362561690204e-15,2.015393416547897e-08,0.002488581523271035,7.0,23.0,6.256,1.0
6.038411134103348e-08,7.885369230140558e-15,2.041295543297861e-08,0.0024858209070623668,7.0,24.0,6.5280000000000005,1.0
4.5190442114410995e-08,7.571061306850269e-15,2.068676885103939e-08,0.0024835977656842406,7.0,25.0,6.800000000000001,1.0
3.0234153446444534e-08,7.257338802520799e-15,2.097595943045712e-08,0.002481903313242148,7.0,26.0,7.072000000000001,1.0
1.5515245337080893e-08,6.944103512372021e-15,2.128114992099916e-08,0.0024807287638415835,7.0,27.0,7.344,1.0
1.0337177863276679e-09,6.6312590161422475e-15,2.160300390503357e-08,0.0024800653315880375,7.0,28.0,7.6160000000000005,1.0
-1.3210429205815141e-08,6.318710678088226e-15,2.1942229199574104e-08,0.0024799042305870046,7.0,29.0,7.888000000000001,1.0
-2.7217195639282907e-08,6.0063656469851304e-15,2.2299581604843378e-08,0.0024802366749439742,7.0,30.0,8.16,1.0
-4.098658151421629e-08,5.6941328561265655e-15,2.2675869039807523e-08,0.002481053878764442,7.0,31.0,8.432,1.0
-5.451858683045942e-08,5.3819230233245596e-15,2.307195611482987e-08,0.0024823470561538977,7.0,32.0,8.704,1.0
-6.781321158816056e-08,5.069648650909582e-15,2.3488769191028662e-08,0.002484107421217837,7.0,33.0,8.976,1.0
-8.087045578715245e-08,4.757224025730523e-15,2.39273019955605e-08,0.002486326188061749,7.0,34.0,9.248000000000001,1.0
-9.369031942760995e-08,4.44456521915471e-15,2.4388621856250488e-08,0.0024889945707911284,7.0,35.0,9.520000000000001,1.0
-1.0627280250940383e-07,4.1315900870679e-15,2.487387664678579e-08,0.002492103783511467,7.0,36.0,9.792000000000002,1.0
-1.1861790503259868e-07,3.818218269874273e-15,2.538430252845949e-08,0.002495645040328257,7.0,37.0,10.064000000000002,1.0
-1.307256269971451e-07,3.5043711924964493e-15,2.5921232606498925e-08,0.002499609555346991,7.0,38.0,10.336,1.0
-1.425959684031191e-07,3.1899720643754707e-15,2.6486106622236703e-08,0.0025039885426731616,7.0,39.0,10.608,1.0
-1.542289292504447e-07,2.8749458794708158e-15,2.708048183425969e-08,0.002508773216412261,7.0,40.0,10.88,1.0
-1.6562450953917127e-07,2.5592194162603914e-15,2.770604525710432e-08,0.0025139547906697824,7.0,41.0,11.152,1.0
-1.7678270926925704e-07,2.2427212377405316e-15,2.8364627464633772e-08,0.0025195244795512173,7.0,42.0,11.424,1.0
-1.8770352844075138e-07,1.9253816914260063e-15,2.9058218191438328e-08,0.0025254734971620597,7.0,43.0,11.696,1.0
-1.9838696705361626e-07,1.6071329093500096e-15,2.9788984016135492e-08,0.0025317930576078,7.0,44.0,11.968,1.0
-2.0883302510785176e-07,1.2879088080641715e-15,3.055928845392584e-08,0.0025384743749939315,7.0,45.0,12.24,1.0
-2.1904170260345784e-07,9.67645088638548e-16,3.137171485370839e-08,0.0025455086634259467,7.0,46.0,12.512,1.0
-2.290129995405067e-07,6.46279236661628e-16,3.222909256496706e-08,0.0025528871370093394,7.0,47.0,12.784,1.0
-2.387469159188881e-07,3.237505222403291e-16,3.313452693487491e-08,0.0025606010098496003,7.0,48.0,13.056000000000001,1.0
-2.4824345173866295e-07,0.0,3.409143380117371e-08,0.0025686414960522223,7.0,49.0,13.328000000000001,1.0
1.3760644146143624e-06,3.2190003237334937e-14,2.3392802615534594e-08,0.005500586026941336,127.0,1.0,0.272,1.0
1.3191045123106735e-06,3.144352482160058e-14,1.3105331742923476e-08,0.005456732124084565,127.0,2.0,0.544,1.0
1.2628647750527712e-06,3.0704147542669485e-14,1.3146883591231685e-08,0.005414733759375096,127.0,3.0,0.8160000000000001,1.0
1.2073452028406706e-06,2.997157189572201e-14,1.3194907989363247e-08,0.005374566600402442,127.0,4.0,1.088,1.0
1.152545795674273e-06,2.9245502544474615e-14,1.3249584051934977e-08,0.005336206314756115,127.0,5.0,1.36,1.0
1.0984665535536543e-06,2.8525648321180016e-14,1.3311100434599868e-08,0.005299628570025629,127.0,6.0,1.6320000000000001,1.0
1.0451074764788146e-06,2.781172222662696e-14,1.3379655977777238e-08,0.005264809033800494,127.0,7.0,1.9040000000000001,1.0
9.924685644497763e-07,2.710344143014043e-14,1.3455460403433273e-08,0.005231723373670223,127.0,8.0,2.176,1.0
9.405498174663956e-07,2.640052726958152e-14,1.3538735069702551e-08,0.005200347257224331,127.0,9.0,2.4480000000000004,1.0
8.893512355288547e-07,2.5702705251347517e-14,1.3629713789442489e-08,0.005170656352052328,127.0,10.0,2.72,1.0
8.388728186371153e-07,2.5009705050371812e-14,1.3728643718402984e-08,0.005142626325743727,127.0,11.0,2.992,1.0
7.891145667910637e-07,2.4321260510123958e-14,1.3835786320987536e-08,0.005116232845888041,127.0,12.0,3.2640000000000002,1.0
7.400764799908444e-07,2.363710964260971e-14,1.395141842098106e-08,0.005091451580074782,127.0,13.0,3.5360000000000005,1.0
6.917585582363278e-07,2.295699462837092e-14,1.4075833345940942e-08,0.005068258195893463,127.0,14.0,3.8080000000000003,1.0
6.441608015276738e-07,2.2280661816485614e-14,1.420934217604292e-08,0.005046628360933594,127.0,15.0,4.08,1.0
5.972832098646544e-07,2.160786172456797e-14,1.4352275107349386e-08,0.005026537742784691,127.0,16.0,4.352,1.0
5.511257832474442e-07,2.0938349038768314e-14,1.4504982943525343e-08,0.005007962009036266,127.0,17.0,4.6240000000000006,1.0
5.05688521676127e-07,2.027188261377314e-14,1.4667838728553333e-08,0.004990876827277826,127.0,18.0,4.896000000000001,1.0
4.6097142515041395e-07,1.9608225472805064e-14,1.4841239537689191e-08,0.004975257865098891,127.0,19.0,5.168,1.0
4.169744936705178e-07,1.8947144807622883e-14,1.5025608444631026e-08,0.0049610807900889705,127.0,20.0,5.44,1.0
3.736977272363702e-07,1.828841197852155e-14,1.5221396684146862e-08,0.004948321269837578,127.0,21.0,5.712,1.0
3.311411258480319e-07,1.763180251433214e-14,1.542908603527117e-08,0.0049369549719342236,127.0,22.0,5.984,1.0
2.8930468950546494e-07,1.697709611242189e-14,1.564919144999238e-08,0.00492695756396842,127.0,23.0,6.256,1.0
2.4818841820860847e-07,1.632407663869422e-14,1.5882263958541318e-08,0.004918304713529682,127.0,24.0,6.5280000000000005,1.0
2.0779231195751577e-07,1.5672532127588674e-14,1.612889388535858e-08,0.004910972088207521,127.0,25.0,6.800000000000001,1.0
1.6811637075227798e-07,1.5022254782080936e-14,1.638971441519054e-08,0.004904935355591447,127.0,26.0,7.072000000000001,1.0
1.2916059459268993e-07,1.437304097368289e-14,1.6665405554710168e-08,0.004900170183270977,127.0,27.0,7.344,1.0
9.092498347896442e-08,1.3724691242442531e-14,1.6956698542412497e-08,0.00489665223883562,127.0,28.0,7.6160000000000005,1.0
5.3409537410911394e-08,1.3077010296944014e-14,1.7264380765288607e-08,0.004894357189874891,127.0,29.0,7.888000000000001,1.0
1.661425638875896e-08,1.2429807014307657e-14,1.7589301254329623e-08,0.004893260703978298,127.0,30.0,8.16,1.0
-1.9460859587759e-08,1.1782894440189925e-14,1.7932376836676582e-08,0.004893338448735359,127.0,31.0,8.432,1.0
-5.4815810518452414e-08,1.1136089788783445e-14,1.8294599041430347e-08,0.004894566091735584,127.0,32.0,8.704,1.0
-8.945059640342012e-08,1.0489214442816971e-14,1.8677041865220037e-08,0.0048969193005684855,127.0,33.0,8.976,1.0
-1.2336521724253284e-07,9.84209395355544e-15,1.908087052871388e-08,0.004900373742823575,127.0,34.0,9.248000000000001,1.0
-1.565596730360111e-07,9.19455804079992e-15,1.9507351371693244e-08,0.004904905086090368,127.0,35.0,9.520000000000001,1.0
-1.8903396378362678e-07,8.546440592887645e-15,1.99578630661814e-08,0.004910488997958373,127.0,36.0,9.792000000000002,1.0
-2.2078808948547877e-07,7.897579666691994e-15,2.04339093536374e-08,0.004917101146017105,127.0,37.0,10.064000000000002,1.0
-2.5182205014158983e-07,7.247817487622503e-15,2.0937133557316104e-08,0.004924717197856076,127.0,38.0,10.336,1.0
-2.8213584575192954e-07,6.597000449624859e-15,2.14693351622275e-08,0.0049333128210647965,127.0,39.0,10.608,1.0
-3.1172947631655115e-07,5.944979115180896e-15,2.203248881613861e-08,0.004942863683232784,127.0,40.0,10.88,1.0
-3.40602941835333e-07,5.291608215308608e-15,2.2628766174509882e-08,0.004953345451949546,127.0,41.0,11.152,1.0
-3.687562423083663e-07,4.636746649562144e-15,2.3260561097400442e-08,0.004964733794804596,127.0,42.0,11.424,1.0
-3.9618937773568154e-07,3.980257486031793e-15,2.3930518816186174e-08,0.004977004379387449,127.0,43.0,11.696,1.0
-4.2290234811719506e-07,3.3220079613440112e-15,2.464156981745908e-08,0.0049901328732876145,127.0,44.0,11.968,1.0
-4.4889515345294483e-07,2.661869480661396e-15,2.539696935962042e-08,0.005004094944094608,127.0,45.0,12.24,1.0
-4.741677937429004e-07,1.9997176176827046e-15,2.6200343746508295e-08,0.005018866259397938,127.0,46.0,12.512,1.0
-4.987202689871836e-07,1.3354321146428423e-15,2.705574474388425e-08,0.005034422486787121,127.0,47.0,12.784,1.0
-5.225525791856041e-07,6.688968823128701e-16,2.796771386326394e-08,0.005050739293851667,127.0,48.0,13.056000000000001,1.0
-5.456647243382914e-07,0.0,2.8941358662032153e-08,0.005067792348181089,127.0,49.0,13.328000000000001,1.0
2.812880877087485e-06,4.544183669258789e-14,1.615490974493001e-08,0.009425641939711314,247.0,1.0,0.272,1.0
2.6970352340063666e-06,4.4394268560836693e-14,9.042792666942662e-09,0.009345467002252339,247.0,2.0,0.544,1.0
2.5827479014950356e-06,4.335623221392728e-14,9.082689429351235e-09,0.009268692270114086,247.0,3.0,0.8160000000000001,1.0
2.4700188795535217e-06,4.2327316558577953e-14,9.12733595686784e-09,0.009195270413516506,247.0,4.0,1.088,1.0
2.358848168181704e-06,4.1307116667864017e-14,9.176876518328736e-09,0.009125154102679552,247.0,5.0,1.36,1.0
2.249235767379643e-06,4.0295233781217546e-14,9.231463586622272e-09,0.009058296007823178,247.0,6.0,1.6320000000000001,1.0
2.141181677147308e-06,3.929127530442771e-14,9.291258430209858e-09,0.008994648799167337,247.0,7.0,1.9040000000000001,1.0
2.034685897484852e-06,3.8294854809640477e-14,9.356431756689678e-09,0.00893416514693198,247.0,8.0,2.176,1.0
1.929748428391955e-06,3.730559203535878e-14,9.427164413560847e-09,0.008876797721337062,247.0,9.0,2.4480000000000004,1.0
1.8263692698690884e-06,3.6323112886442474e-14,9.503648152630178e-09,0.008822499192602529,247.0,10.0,2.72,1.0
1.7245484219157506e-06,3.534704943410832e-14,9.586086464153766e-09,0.00877122223094834,247.0,11.0,2.992,1.0
1.6242858845322606e-06,3.4377039915930024e-14,9.674695489384533e-09,0.008722919506594448,247.0,12.0,3.2640000000000002,1.0
1.5255816577185881e-06,3.341272873583822e-14,9.769705018936725e-09,0.008677543689760798,247.0,13.0,3.5360000000000005,1.0
1.4284357414745054e-06,3.2453766464120413e-14,9.871359587657585e-09,0.008635047450667352,247.0,14.0,3.8080000000000003,1.0
1.3328481358004226e-06,3.14998098374211e-14,9.97991967653149e-09,0.008595383459534055,247.0,15.0,4.08,1.0
1.2388188406958383e-06,3.055052175874162e-14,1.009566303377719e-08,0.008558504386580864,247.0,16.0,4.352,1.0
1.1463478561611475e-06,2.960557129744032e-14,1.0218886130133065e-08,0.008524362902027731,247.0,17.0,4.6240000000000006,1.0
1.0554351821963653e-06,2.866463368923239e-14,1.034990576311099e-08,0.008492911676094604,247.0,18.0,4.896000000000001,1.0
9.660808188010514e-07,2.7727390336190037e-14,1.0489060829585714e-08,0.008464103379001442,247.0,19.0,5.168,1.0
8.782847659756765e-07,2.6793528806742288e-14,1.0636714287203633e-08,0.008437890680968193,247.0,20.0,5.44,1.0
7.920470237199825e-07,2.5862742835675138e-14,1.079325532789783e-08,0.008414226252214812,247.0,21.0,5.712,1.0
7.073675920341362e-07,2.4934732324131496e-14,1.095910179211506e-08,0.008393062762961248,247.0,22.0,5.984,1.0
6.242464709180165e-07,2.4009203339611216e-14,1.113470285401133e-08,0.008374352883427458,247.0,23.0,6.256,1.0
5.426836603715929e-07,2.308586811597105e-14,1.1320542014851557e-08,0.00835804928383339,247.0,24.0,6.5280000000000005,1.0
4.626791603949562e-07,2.216444505342468e-14,1.1517140446043028e-08,0.008344104634399002,247.0,25.0,6.800000000000001,1.0
3.8423297098815236e-07,2.1244658718542703e-14,1.1725060730638888e-08,0.008332471605344241,247.0,26.0,7.072000000000001,1.0
3.073450921509837e-07,2.0326239844252644e-14,1.1944911059844231e-08,0.008323102866889065,247.0,27.0,7.344,1.0
2.3201552388372392e-07,1.940892532983897e-14,1.2177349950542095e-08,0.00831595108925342,247.0,28.0,7.6160000000000005,1.0
1.5824426618605363e-07,1.8492458240943024e-14,1.2423091560290535e-08,0.008310968942657263,247.0,29.0,7.888000000000001,1.0
8.60313190583682e-08,1.7576587809563107e-14,1.2682911691174916e-08,0.008308109097320543,247.0,30.0,8.16,1.0
1.5376682500272277e-08,1.666106943405443e-14,1.2957654587266756e-08,0.008307324223463216,247.0,31.0,8.432,1.0
-5.371964348808207e-08,1.5745664679129117e-14,1.3248240652905297e-08,0.008308566991305234,247.0,32.0,8.704,1.0
-1.212576589066036e-07,1.483014127585624e-14,1.3555675238597605e-08,0.008311790071066548,247.0,33.0,8.976,1.0
-1.8723736375529233e-07,1.3914273121661775e-14,1.3881058672433092e-08,0.00831694613296711,247.0,34.0,9.248000000000001,1.0
-2.516587580344676e-07,1.2997840280328626e-14,1.422559774725946e-08,0.008323987847226877,247.0,35.0,9.520000000000001,1.0
-3.145218417436428e-07,1.2080628981996597e-14,1.4590618916745205e-08,0.008332867884065795,247.0,36.0,9.792000000000002,1.0
-3.758266148830916e-07,1.1162431623162445e-14,1.4977583503091116e-08,0.00834353891370382,247.0,37.0,10.064000000000002,1.0
-4.355730774529357e-07,1.0243046766679826e-14,1.538810528586275e-08,0.008355953606360907,247.0,38.0,10.336,1.0
-4.937612294528709e-07,9.32227914175934e-15,1.58239709163046e-08,0.008370064632257005,247.0,39.0,10.608,1.0
-5.503910708831254e-07,8.399939643968492e-15,1.6287163701964534e-08,0.008385824661612067,247.0,40.0,10.88,1.0
-6.054626017434559e-07,7.47584533523171e-15,1.6779891430300367e-08,0.00840318636464604,247.0,41.0,11.152,1.0
-6.589758220342576e-07,6.549819443830354e-15,1.730461905243494e-08,0.008422102411578888,247.0,42.0,11.424,1.0
-7.109307317552114e-07,5.621691364402694e-15,1.7864107250163102e-08,0.008442525472630557,247.0,43.0,11.696,1.0
-7.613273309063475e-07,4.6912966579439304e-15,1.846145815650319e-08,0.008464408218020998,247.0,44.0,11.968,1.0
-8.101656194878334e-07,3.7584770518061815e-15,1.9100169830508205e-08,0.008487703317970169,247.0,45.0,12.24,1.0
-8.574455974993801e-07,2.823080439698489e-15,1.978420150447722e-08,0.008512363442698014,247.0,46.0,12.512,1.0
-9.031672649414283e-07,1.8849608816868197e-15,2.05180521729818e-08,0.008538341262424497,247.0,47.0,12.784,1.0
-9.47330621813522e-07,9.439786041940536e-16,2.1306855822080002e-08,0.008565589447369562,247.0,48.0,13.056000000000001,1.0
-9.899356681158591e-07,0.0,2.2156497554193993e-08,0.00859406066775316,247.0,49.0,13.328000000000001,1.0
4.4906764830086766e-06,5.992170198736299e-14,1.3343580240992215e-08,0.014474846920077307,367.0,1.0,0.272,1.0
4.3039033594455076e-06,5.857288024034057e-14,7.2217122104628125e-09,0.014357097805313163,367.0,2.0,0.544,1.0
4.119764533002752e-06,5.723390980596457e-14,7.271526924780613e-09,0.014244416496625712,367.0,3.0,0.8160000000000001,1.0
3.938260003679711e-06,5.590434709584449e-14,7.325231580054533e-09,0.014136729180098886,367.0,4.0,1.088,1.0
3.7593897714770225e-06,5.4583755622864545e-14,7.382958342020309e-09,0.014033962041816587,367.0,5.0,1.36,1.0
3.5831538363938357e-06,5.327170600118346e-14,7.444847278517695e-09,0.013936041267862754,367.0,6.0,1.6320000000000001,1.0
3.4095521984309098e-06,5.1967775946234467e-14,7.511046959288823e-09,0.01384289304432129,367.0,7.0,1.9040000000000001,1.0
3.2385848575880025e-06,5.067155027472543e-14,7.581715110724395e-09,0.013754443557276114,367.0,8.0,2.176,1.0
3.0702518138649914e-06,4.9382620904638803e-14,7.657019332505713e-09,0.013670618992811145,367.0,9.0,2.4480000000000004,1.0
2.9045530672621205e-06,4.8100586855231516e-14,7.737137882400104e-09,0.013591345537010302,367.0,10.0,2.72,1.0
2.7414886177791463e-06,4.682505424703517e-14,7.822260537110667e-09,0.013516549375957499,367.0,11.0,2.992,1.0
2.5810584654160983e-06,4.5555636301855897e-14,7.91258953807277e-09,0.013446156695736658,367.0,12.0,3.2640000000000002,1.0
2.4232626101732215e-06,4.429195334277434e-14,8.008340631865875e-09,0.013380093682431694,367.0,13.0,3.5360000000000005,1.0
2.268101052050119e-06,4.303363279414578e-14,8.109744216607001e-09,0.013318286522126526,367.0,14.0,3.8080000000000003,1.0
2.115573791047278e-06,4.178030918160001e-14,8.217046607310576e-09,0.013260661400905068,367.0,15.0,4.08,1.0
1.9656808271641208e-06,4.0531624132041466e-14,8.33051143435861e-09,0.013207144504851245,367.0,16.0,4.352,1.0
1.8184221604010427e-06,3.928722637364905e-14,8.450421192489168e-09,0.013157662020048973,367.0,17.0,4.6240000000000006,1.0
1.6737977907584695e-06,3.804677173587631e-14,8.577078958673542e-09,0.013112140132582151,367.0,18.0,4.896000000000001,1.0
1.5318077182351539e-06,3.6809923149451325e-14,8.710810301346165e-09,0.013070505028534725,367.0,19.0,5.168,1.0
1.3924519428321914e-06,3.557635064637673e-14,8.851965406583166e-09,0.013032682893990595,367.0,20.0,5.44,1.0
1.2557304645491862e-06,3.434573135992979e-14,9.000921449222703e-09,0.012998599915033686,367.0,21.0,5.712,1.0
1.1216432833862294e-06,3.311774952466227e-14,9.158085244369082e-09,0.01296818227774791,367.0,22.0,5.984,1.0
9.9019039934323e-07,3.189209647640054e-14,9.323896217148124e-09,0.012941356168217186,367.0,23.0,6.256,1.0
8.613718124201578e-07,3.06684706522455e-14,9.498829737091912e-09,0.012918047772525434,367.0,24.0,6.5280000000000005,1.0
7.351875226171038e-07,2.944657759057266e-14,9.683400870107911e-09,0.012898183276756571,367.0,25.0,6.800000000000001,1.0
6.116375299341287e-07,2.8226129931032052e-14,9.878168610436362e-09,0.012881688866994515,367.0,26.0,7.072000000000001,1.0
