dI/dz, Integral_trapz, Conc.(mol/cm^3), D(cm^2/sec), Time(sec), Position(element), depth(μm), crystal
4.0918530740263107e-07,2.704601870990533e-15,6.6097238147635954e-09,0.0010550392649185695,17.0,1.0,0.6188000000000001,3.0
3.9082227395941817e-07,2.6217715822154363e-15,6.708347391908562e-09,0.001033773503871607,17.0,2.0,1.2376000000000003,3.0
3.7279654225514867e-07,2.5399548514949093e-15,6.813246807843294e-09,0.0010134325491734876,17.0,3.0,1.8564000000000005,3.0
3.5510811228978087e-07,2.4591731660387293e-15,6.9251393615923835e-09,0.000993999782978596,17.0,4.0,2.4752000000000005,3.0
3.37756984063343e-07,2.379446760696325e-15,7.04484843531787e-09,0.0009754585874413165,17.0,5.0,3.0940000000000003,3.0
3.207431575758236e-07,2.300794617956787e-15,7.173324086930459e-09,0.0009577923447160343,17.0,6.0,3.712800000000001,3.0
3.0406663282722244e-07,2.223234467948858e-15,7.3116686539300424e-09,0.000940984436957134,17.0,7.0,4.331600000000001,3.0
2.87727409817558e-07,2.146782788440939e-15,7.461168853541516e-09,0.000925018246318999,17.0,8.0,4.950400000000001,3.0
2.7172548854679863e-07,2.0714548048410884e-15,7.623336389675224e-09,0.0009098771549560153,17.0,9.0,5.5692,3.0
2.5606086901496925e-07,1.9972644901970216e-15,7.799959821585476e-09,0.0008955445450225666,17.0,10.0,6.188000000000001,3.0
2.407335512220498e-07,1.924224565196114e-15,7.99317151858584e-09,0.0008820037986730386,17.0,11.0,6.8068,3.0
2.2574353516807222e-07,1.852346498165387e-15,8.20553508558402e-09,0.0008692382980618145,17.0,12.0,7.425600000000002,3.0
2.1109082085299786e-07,1.78164050507153e-15,8.440160959496443e-09,0.0008572314253432799,17.0,13.0,8.044400000000001,3.0
1.967754082768527e-07,1.7121155495208825e-15,8.700861375482579e-09,0.000845966562671819,17.0,14.0,8.663200000000002,3.0
1.8279729743964013e-07,1.6437793427594408e-15,8.992361297366655e-09,0.0008354270922018159,17.0,15.0,9.282000000000002,3.0
1.6915648834132498e-07,1.576638343672863e-15,9.320590413839241e-09,0.0008255963960876564,17.0,16.0,9.900800000000002,3.0
1.5585298098194657e-07,1.5106977587864597e-15,9.693095051941632e-09,0.0008164578564837245,17.0,17.0,10.519600000000002,3.0
1.4288677536148066e-07,1.4459615422651936e-15,1.0119631705643454e-08,0.000807994855544405,17.0,18.0,11.1384,3.0
1.3025787147995397e-07,1.3824323959137011e-15,1.0613043036915052e-08,0.0008001907754240816,17.0,19.0,11.757200000000001,3.0
1.1796626933733226e-07,1.3201117691762548e-15,1.1190586737987864e-08,0.0007930289982771399,17.0,20.0,12.376000000000001,3.0
1.0601196893363555e-07,1.2589998591367944e-15,1.1876016187615e-08,0.0007864929062579644,17.0,21.0,12.9948,3.0
9.439497026885805e-08,1.1990956105189166e-15,1.2702960836828733e-08,0.0007805658815209397,17.0,22.0,13.6136,3.0
8.311527334300641e-08,1.1403967156858707e-15,1.3720663721811935e-08,0.0007752313062204501,17.0,23.0,14.2324,3.0
7.217287815607646e-08,1.0828996146405636e-15,1.5004245948162883e-08,0.0007704725625108802,17.0,24.0,14.851200000000004,3.0
6.156778470806736e-08,1.026599495025567e-15,1.6674296466785973e-08,0.0007662730325466149,17.0,25.0,15.470000000000004,3.0
5.129999299898411e-08,9.714902921230894e-16,1.89374351794225e-08,0.0007626160984820384,17.0,26.0,16.088800000000003,3.0
4.136950302881253e-08,9.17564688855021e-16,2.2179736803122017e-08,0.0007594851424715358,17.0,27.0,16.707600000000003,3.0
3.1776314797566806e-08,8.648141157828956e-16,2.7215683168178982e-08,0.0007568635466694913,17.0,28.0,17.326400000000003,3.0
2.252042830524445e-08,8.132287511078984e-16,3.6110714240657565e-08,0.00075473469323029,17.0,29.0,17.945200000000003,3.0
1.3601843551843771e-08,7.627975206708784e-16,5.6080450989121905e-08,0.0007530819643083159,17.0,30.0,18.564000000000004,3.0
5.020560537361438e-09,7.135080979523447e-16,1.421172183150947e-07,0.0007518887420579537,17.0,31.0,19.182800000000004,3.0
-3.223420738196701e-09,6.65346904072457e-16,-2.0641019528982625e-07,0.0007511384086335884,17.0,32.0,19.801600000000004,3.0
-1.1130100274835662e-08,6.182991077910313e-16,-5.5551979993294404e-08,0.0007508143461896045,17.0,33.0,20.4204,3.0
-1.8699478072549594e-08,5.723486255075434e-16,-3.0607732648310547e-08,0.0007508999368803863,17.0,34.0,21.039200000000005,3.0
-2.5931554131347692e-08,5.274781212611262e-16,-2.0341168855108358e-08,0.0007513785628603187,17.0,35.0,21.658,3.0
-3.282632845121909e-08,4.836690067305665e-16,-1.473417922596227e-08,0.0007522336062837861,17.0,36.0,22.2768,3.0
-3.9383801032170473e-08,4.409014412343073e-16,-1.1194994634320822e-08,0.0007534484493051733,17.0,37.0,22.895600000000005,3.0
-4.5603971874199335e-08,3.9915433173045164e-16,-8.752622092468991e-09,0.0007550064740788648,17.0,38.0,23.514400000000002,3.0
-5.1486840977311516e-08,3.584053328167601e-16,-6.9611055177127104e-09,0.0007568910627592454,17.0,39.0,24.133200000000002,3.0
-5.70324083414945e-08,3.186308467306434e-16,-5.5868383607924955e-09,0.0007590855975006991,17.0,40.0,24.752000000000002,3.0
-6.224067396676665e-08,2.79806023349174e-16,-4.49554938139931e-09,0.0007615734604576115,17.0,41.0,25.370800000000006,3.0
-6.711163785310377e-08,2.4190476018908077e-16,-3.6045128375285686e-09,0.0007643380337843662,17.0,42.0,25.9896,3.0
-7.164530000053339e-08,2.048997024067476e-16,-2.85991826965931e-09,0.0007673626996353485,17.0,43.0,26.608400000000003,3.0
-7.584166040903129e-08,1.687622427982161e-16,-2.2251918258123964e-09,0.0007706308401649426,17.0,44.0,27.2272,3.0
6.66688448219164e-07,1.6740757517417294e-14,2.511031586363113e-08,0.0019896863237339048,137.0,1.0,0.6188000000000001,3.0
6.418105733006447e-07,1.6178127754951848e-14,2.5207013452197356e-08,0.0019438054376999356,137.0,2.0,1.2376000000000003,3.0
6.173333824702019e-07,1.5630296370747986e-14,2.5319052580964946e-08,0.0018995605652266055,137.0,3.0,1.8564000000000005,3.0
5.932568757278126e-07,1.5096832175024215e-14,2.544737834939257e-08,0.0018569264043249698,137.0,4.0,2.4752000000000005,3.0
5.695810530735032e-07,1.457730927535163e-14,2.5593037543456453e-08,0.0018158776530060815,137.0,5.0,3.0940000000000003,3.0
5.463059145072523e-07,1.4071307076653822e-14,2.57571933654528e-08,0.0017763890092809956,137.0,6.0,3.712800000000001,3.0
5.234314600290713e-07,1.3578410281207023e-14,2.594114285842292e-08,0.0017384351711607657,137.0,7.0,4.331600000000001,3.0
5.009576896389836e-07,1.3098208888639999e-14,2.614633762400025e-08,0.0017019908366564444,137.0,8.0,4.950400000000001,3.0
4.788846033369327e-07,1.2630298195934098e-14,2.6374408590137313e-08,0.0016670307037790879,137.0,9.0,5.5692,3.0
4.572122011229669e-07,1.2174278797423222e-14,2.662719579119228e-08,0.0016335294705397492,137.0,10.0,6.188000000000001,3.0
4.359404829970526e-07,1.1729756584793839e-14,2.6906784394403542e-08,0.001601461834949483,137.0,11.0,6.8068,3.0
4.150694489592402e-07,1.1296342747085003e-14,2.7215548567618872e-08,0.0015708024950193418,137.0,12.0,7.425600000000002,3.0
3.9459909900946434e-07,1.0873653770688323e-14,2.7556205267532863e-08,0.0015415261487603813,137.0,13.0,8.044400000000001,3.0
3.745294331477702e-07,1.0461311439347977e-14,2.7931880684048876e-08,0.001513607494183655,137.0,14.0,8.663200000000002,3.0
3.5486045137416287e-07,1.0058942834160714e-14,2.834619297588229e-08,0.0014870212293002156,137.0,15.0,9.282000000000002,3.0
3.3559215368858874e-07,9.666180333575848e-15,2.8803356179017036e-08,0.0014617420521211193,137.0,16.0,9.900800000000002,3.0
3.167245400911047e-07,9.282661613395268e-15,2.930831191901058e-08,0.001437744660657419,137.0,17.0,10.519600000000002,3.0
2.982576105816807e-07,8.908029646773421e-15,2.9866898046291e-08,0.0014150037529201689,137.0,18.0,11.1384,3.0
2.8019136516034175e-07,8.541932704217321e-15,3.048606690405728e-08,0.0013934940269204226,137.0,19.0,11.757200000000001,3.0
2.6252580382705444e-07,8.184024353586555e-15,3.117417120253059e-08,0.0013731901806692348,137.0,20.0,12.376000000000001,3.0
2.4526092658183883e-07,7.833963460093287e-15,3.1941343324735605e-08,0.0013540669121776593,137.0,21.0,12.9948,3.0
2.283967334246899e-07,7.491414186302231e-15,3.280000582307979e-08,0.0013360989194567505,137.0,22.0,13.6136,3.0
2.1193322435562103e-07,7.156045992130682e-15,3.3765569385774715e-08,0.0013192609005175612,137.0,23.0,14.2324,3.0
1.9587039937461132e-07,6.827533634848498e-15,3.4857403960210034e-08,0.0013035275533711467,137.0,24.0,14.851200000000004,3.0
1.802082584816725e-07,6.505557169078102e-15,3.610021662653007e-08,0.0012888735760285608,137.0,25.0,15.470000000000004,3.0
1.6494680167681288e-07,6.1898019467944915e-15,3.752605011961631e-08,0.0012752736665008564,137.0,26.0,16.088800000000003,3.0
1.5008602896000743e-07,5.879958617325227e-15,3.917725492552026e-08,0.0012627025227990886,137.0,27.0,16.707600000000003,3.0
1.3562594033127365e-07,5.575723127350434e-15,4.111103756207279e-08,0.0012511348429343119,137.0,28.0,17.326400000000003,3.0
1.2156653579061076e-07,5.27679672090282e-15,4.3406655347913395e-08,0.0012405453249175792,137.0,29.0,17.945200000000003,3.0
1.0790781533801956e-07,4.982885939367642e-15,4.617724790145023e-08,0.001230908666759945,137.0,30.0,18.564000000000004,3.0
9.464977897349338e-08,4.693702621482735e-15,4.959021217363016e-08,0.0012221995664724633,137.0,31.0,19.182800000000004,3.0
8.179242669703554e-08,4.408963903338504e-15,5.390430485293697e-08,0.0012143927220661884,137.0,32.0,19.801600000000004,3.0
6.93357585086486e-08,4.128392218377916e-15,5.9542035843784145e-08,0.0012074628315521738,137.0,33.0,20.4204,3.0
5.727977440833333e-08,3.85171529739651e-15,6.724389781877605e-08,0.0012013845929414735,137.0,34.0,21.039200000000005,3.0
4.562447439607473e-08,3.578666168542388e-15,7.84374223684268e-08,0.0011961327042451428,137.0,35.0,21.658,3.0
3.436985847190203e-08,3.3089831573162224e-15,9.627572833974207e-08,0.0011916818634742337,137.0,36.0,22.2768,3.0
2.351592663578432e-08,3.0424098865712576e-15,1.2937656821660623e-07,0.0011880067686398021,137.0,37.0,22.895600000000005,3.0
1.3062678887742493e-08,2.7786952765133015e-15,2.1272017021873823e-07,0.0011850821177529008,137.0,38.0,23.514400000000002,3.0
3.0101152277673535e-09,2.517593544700726e-15,8.36377797592839e-07,0.0011828826088245842,137.0,39.0,24.133200000000002,3.0
-6.641764344139433e-09,2.2588642060444824e-15,-3.401000229762234e-07,0.0011813829398659066,137.0,40.0,24.752000000000002,3.0
-1.589295982797786e-08,2.002272072808079e-15,-1.259848445148205e-07,0.0011805578088879215,137.0,41.0,25.370800000000006,3.0
-2.4743471223742916e-08,1.7475872546075965e-15,-7.062821698722193e-08,0.0011803819139016834,137.0,42.0,25.9896,3.0
-3.319329853144881e-08,1.4945851584116834e-15,-4.502671396142348e-08,0.0011808299529182465,137.0,43.0,26.608400000000003,3.0
-4.124244175107631e-08,1.2430464885415557e-15,-3.013998288569119e-08,0.0011818766239486641,137.0,44.0,27.2272,3.0
1.575310667550974e-06,4.7269382585578166e-14,3.0006387666417946e-08,0.004710338420157335,257.0,1.0,0.6188000000000001,3.0
1.5290655005054882e-06,4.5630581102789036e-14,2.9842136316399913e-08,0.004596247461230788,257.0,2.0,1.2376000000000003,3.0
1.4833728047048854e-06,4.403292790596133e-14,2.9684330039151288e-08,0.004485300888828508,257.0,3.0,1.8564000000000005,3.0
1.4382325801490717e-06,4.247550507799021e-14,2.9533126744763113e-08,0.004377466205032054,257.0,4.0,2.4752000000000005,3.0
1.393644826838157e-06,4.0957399091308565e-14,2.9388692371664737e-08,0.004272710911922972,257.0,5.0,3.0940000000000003,3.0
1.3496095447720812e-06,3.9477700807887205e-14,2.9251201549966885e-08,0.004171002511582819,257.0,6.0,3.712800000000001,3.0
1.3061267339508681e-06,3.8035505479234694e-14,2.912083834635411e-08,0.004072308506093145,257.0,7.0,4.331600000000001,3.0
1.263196394374541e-06,3.662991274639747e-14,2.8997797103857635e-08,0.003976596397535503,257.0,8.0,4.950400000000001,3.0
1.2208185260430228e-06,3.526002663995973e-14,2.888228339247625e-08,0.0038838336879914487,257.0,9.0,5.5692,3.0
1.1789931289563704e-06,3.392495558004356e-14,2.8774515089900052e-08,0.0037939878795425334,257.0,10.0,6.188000000000001,3.0
1.137720203114567e-06,3.262381237630889e-14,2.867472361570054e-08,0.003707026474270311,257.0,11.0,6.8068,3.0
1.0969997485176464e-06,3.1355714227953356e-14,2.8583155347413434e-08,0.003622916974256333,257.0,12.0,7.425600000000002,3.0
1.0568317651655612e-06,3.0119782723712547e-14,2.8500073253375424e-08,0.0035416268815821523,257.0,13.0,8.044400000000001,3.0
1.0172162530583203e-06,2.891514384185978e-14,2.8425758785238348e-08,0.003463123698329324,257.0,14.0,8.663200000000002,3.0
9.781532121960038e-07,2.7740927950206286e-14,2.8360514083398542e-08,0.003387374926579395,257.0,15.0,9.282000000000002,3.0
9.39642642578446e-07,2.659626980610104e-14,2.8304664561751893e-08,0.003314348068413926,257.0,16.0,9.900800000000002,3.0
9.016845442057926e-07,2.5480308556430888e-14,2.825856195513925e-08,0.003244010625914466,257.0,17.0,10.519600000000002,3.0
8.642789170779848e-07,2.439218773762048e-14,2.8222587935023697e-08,0.003176330101162569,257.0,18.0,11.1384,3.0
8.274257611950496e-07,2.333105527563231e-14,2.8197158427766748e-08,0.003111273996239786,257.0,19.0,11.757200000000001,3.0
7.911250765569469e-07,2.2296063485966684e-14,2.8182728808194674e-08,0.003048809813227672,257.0,20.0,12.376000000000001,3.0
7.553768631637065e-07,2.128636907366171e-14,2.817980019206452e-08,0.002988905054207779,257.0,21.0,12.9948,3.0
7.201811210153103e-07,2.0301133133293345e-14,2.8188927119712382e-08,0.002931527221261661,257.0,22.0,13.6136,3.0
6.855378501117933e-07,1.9339521148975382e-14,2.8210727016490205e-08,0.00287664381647087,257.0,23.0,14.2324,3.0
6.514470504531204e-07,1.840070299435943e-14,2.824589194403542e-08,0.0028242223419169582,257.0,24.0,14.851200000000004,3.0
6.179087220392998e-07,1.7483852932634894e-14,2.829520333510181e-08,0.0027742302996814796,257.0,25.0,15.470000000000004,3.0
5.849228648703552e-07,1.658814961652904e-14,2.8359550656659165e-08,0.002726635191845986,257.0,26.0,16.088800000000003,3.0
5.524894789462397e-07,1.5712776088306938e-14,2.843995530607358e-08,0.0026814045204920315,257.0,27.0,16.707600000000003,3.0
5.206085642669799e-07,1.4856919779771488e-14,2.8537601567677096e-08,0.002638505787701169,257.0,28.0,17.326400000000003,3.0
4.892801208325826e-07,1.4019772512263415e-14,2.8653877227643536e-08,0.0025979064955549513,257.0,29.0,17.945200000000003,3.0
4.5850414864305454e-07,1.3200530496661273e-14,2.8790427601862082e-08,0.00255957414613493,257.0,30.0,18.564000000000004,3.0
4.2828064769835377e-07,1.2398394333381427e-14,2.89492285024138e-08,0.00252347624152266,257.0,31.0,19.182800000000004,3.0
3.986096179985339e-07,1.1612569012378072e-14,2.9132686438140047e-08,0.0024895802837996924,257.0,32.0,19.801600000000004,3.0
3.694910595435531e-07,1.084226391314323e-14,2.9343778781919936e-08,0.0024578537750475815,257.0,33.0,20.4204,3.0
3.409249723334398e-07,1.0086692804706754e-14,2.9586253936369084e-08,0.0024282642173478796,257.0,34.0,21.039200000000005,3.0
3.129113563681673e-07,9.345073845636303e-15,2.986492390081559e-08,0.00240077911278214,257.0,35.0,21.658,3.0
2.854502116477589e-07,8.616629584037384e-15,3.0186103328836096e-08,0.0023753659634319154,257.0,36.0,22.2768,3.0
2.585415381722046e-07,7.900586957553304e-15,3.05582886734859e-08,0.0023519922713787587,257.0,37.0,22.895600000000005,3.0
2.3218533594150783e-07,7.196177293365205e-15,3.0993246253837785e-08,0.0023306255387042225,257.0,38.0,23.514400000000002,3.0
2.0638160495566015e-07,6.502636308192063e-15,3.150782895398606e-08,0.0023112332674898608,257.0,39.0,24.133200000000002,3.0
1.8113034521467493e-07,5.819204108290661e-15,3.212716290798079e-08,0.0022937829598172247,257.0,40.0,24.752000000000002,3.0
1.5643155671853883e-07,5.145125189455618e-15,3.289058357140203e-08,0.002278242117767869,257.0,41.0,25.370800000000006,3.0
1.322852394672669e-07,4.479648437019372e-15,3.3863554657039654e-08,0.002264578243423345,257.0,42.0,25.9896,3.0
1.0869139346083406e-07,3.8220271258521875e-15,3.516402729006708e-08,0.0022527588388652074,257.0,43.0,26.608400000000003,3.0
8.565001869927537e-08,3.171518920362151e-15,3.702881760595556e-08,0.002242751406175007,257.0,44.0,27.2272,3.0
3.7052300111125337e-06,1.0003543387102776e-13,2.699844100663297e-08,0.010482700885423173,377.0,1.0,0.6188000000000001,3.0
3.61033358813146e-06,9.65598840150954e-14,2.674541885340581e-08,0.010219076354185709,377.0,2.0,1.2376000000000003,3.0
3.5162597552150857e-06,9.31744663113971e-14,2.649817499210826e-08,0.00996214950310403,377.0,3.0,1.8564000000000005,3.0
3.4230085123631083e-06,8.987701966510758e-14,2.625673273685787e-08,0.009711866770179456,377.0,4.0,2.4752000000000005,3.0
3.3305798595758293e-06,8.666539583055154e-14,2.6021113284936793e-08,0.009468174593413281,377.0,5.0,3.0940000000000003,3.0
3.238973796853041e-06,8.353745941120348e-14,2.579133535824456e-08,0.009231019410806821,377.0,6.0,3.712800000000001,3.0
3.1481903241948983e-06,8.049108785968795e-14,2.5567414790994987e-08,0.009000347660361377,377.0,7.0,4.331600000000001,3.0
3.0582294416013936e-06,7.752417147777936e-14,2.5349364054642365e-08,0.008776105780078248,377.0,8.0,4.950400000000001,3.0
2.9690911490723265e-06,7.463461341640205e-14,2.513719170922764e-08,0.008558240207958753,377.0,9.0,5.5692,3.0
2.8807754466079106e-06,7.182032967563022e-14,2.4930901768202054e-08,0.008346697382004189,377.0,10.0,6.188000000000001,3.0
2.7932823342080394e-06,6.907924910468811e-14,2.4730492961168455e-08,0.00814142374021587,377.0,11.0,6.8068,3.0
2.7066118118728e-06,6.640931340194977e-14,2.4535957875687696e-08,0.007942365720595092,377.0,12.0,7.425600000000002,3.0
2.620763879602065e-06,6.380847711493924e-14,2.434728195530071e-08,0.007749469761143172,377.0,13.0,8.044400000000001,3.0
2.5357385373959613e-06,6.127470764033048e-14,2.4164442325846268e-08,0.007562682299861408,377.0,14.0,8.663200000000002,3.0
2.451535785254536e-06,5.880598522394731e-14,2.3987406415869082e-08,0.007381949774751101,377.0,15.0,9.282000000000002,3.0
2.3681556231774484e-06,5.640030296076354e-14,2.3816130328921973e-08,0.007207218623813574,377.0,16.0,9.900800000000002,3.0
2.285598051165112e-06,5.405566679490286e-14,2.3650556915441587e-08,0.00703843528505012,377.0,17.0,10.519600000000002,3.0
2.2038630692172605e-06,5.1770095519638845e-14,2.3490613479006152e-08,0.006875546196462054,377.0,18.0,11.1384,3.0
2.122950677334097e-06,4.954162077739509e-14,2.333620903506207e-08,0.00671849779605067,377.0,19.0,11.757200000000001,3.0
2.042860875515435e-06,4.736828705974501e-14,2.318723101875134e-08,0.006567236521817283,377.0,20.0,12.376000000000001,3.0
1.9635936637613337e-06,4.524815170741204e-14,2.304354131024114e-08,0.006421708811763199,377.0,21.0,12.9948,3.0
1.8851490420718343e-06,4.3179284910269465e-14,2.290497140895245e-08,0.006281861103889722,377.0,22.0,13.6136,3.0
1.807527010446953e-06,4.115976970734048e-14,2.2771316538812204e-08,0.006147639836198155,377.0,23.0,14.2324,3.0
1.7307275688865793e-06,3.9187701986798235e-14,2.264232840065561e-08,0.0060189914466898115,377.0,24.0,14.851200000000004,3.0
1.654750717390817e-06,3.726119048596583e-14,2.2517706198501396e-08,0.005895862373365993,377.0,25.0,15.470000000000004,3.0
1.5795964559596899e-06,3.537835679131619e-14,2.2397085444093335e-08,0.005778199054228001,377.0,26.0,16.088800000000003,3.0
1.5052647845930636e-06,3.353733533847228e-14,2.2280023874695792e-08,0.0056659479272771485,377.0,27.0,16.707600000000003,3.0
1.4317557032910021e-06,3.173627341220689e-14,2.216598358173716e-08,0.005559055430514742,377.0,28.0,17.326400000000003,3.0
1.3590692120535653e-06,2.9973331146442766e-14,2.2054308110734704e-08,0.005457468001942084,377.0,29.0,17.945200000000003,3.0
1.28720531088072e-06,2.8246681524252557e-14,2.194419280707121e-08,0.005361132079560479,377.0,30.0,18.564000000000004,3.0
1.2161639997723927e-06,2.6554510377858886e-14,2.183464597112611e-08,0.005269994101371238,377.0,31.0,19.182800000000004,3.0
1.1459452787286864e-06,2.4895016388634235e-14,2.1724437327629472e-08,0.005184000505375665,377.0,32.0,19.801600000000004,3.0
1.0765491477495385e-06,2.326641108710105e-14,2.161202870833913e-08,0.005103097729575066,377.0,33.0,20.4204,3.0
