dI/dz, Integral_trapz, Conc.(mol/cm^3), D(cm^2/sec), Time(sec), Position(element), depth(μm), crystal
-1.9264777068693443e-07,4.4141233245676816e-15,-2.2912921903160397e-08,0.0007601333474242542,17.0,99.0,0.6188000000000001,3.0
-1.8168121654217342e-07,4.337070216801983e-15,-2.3871869086671516e-08,0.0007706482113479242,17.0,98.0,1.2376000000000003,3.0
-1.710744165063312e-07,4.258815260373455e-15,-2.4894518697457273e-08,0.0007805563457182663,17.0,97.0,1.8564000000000005,3.0
-1.6082737057940858e-07,4.17942063574523e-15,-2.5986998485942662e-08,0.0007898784033548434,17.0,96.0,2.4752000000000005,3.0
-1.5094007876140222e-07,4.098946285934916e-15,-2.7156115987022273e-08,0.0007986350370772186,17.0,95.0,3.0940000000000003,3.0
-1.4141254105231466e-07,4.0174499165145915e-15,-2.8409431629040325e-08,0.0008068468997049555,17.0,94.0,3.712800000000001,3.0
-1.322447574521534e-07,3.934986995610808e-15,-2.9755334513237695e-08,0.0008145346440576171,17.0,93.0,4.331600000000001,3.0
-1.2343672796090423e-07,3.8516107539045934e-15,-3.120311772298844e-08,0.0008217189229547668,17.0,92.0,4.950400000000001,3.0
-1.1498845257857133e-07,3.767372184631452e-15,-3.2763047942202855e-08,0.0008284203892159674,17.0,91.0,5.5692,3.0
-1.0689993130516139e-07,3.6823200435813585e-15,-3.444642104651724e-08,0.0008346596956607821,17.0,90.0,6.188000000000001,3.0
-9.91711641406694e-08,3.5965008490987586e-15,-3.626559071140175e-08,0.0008404574951087746,17.0,89.0,6.8068,3.0
-9.180215108508865e-08,3.509958882082577e-15,-3.823395030067762e-08,0.000845834440379507,17.0,88.0,7.425600000000002,3.0
-8.479289213843755e-08,3.422736185986211e-15,-4.036583845256821e-08,0.0008508111842925437,17.0,87.0,8.044400000000001,3.0
-7.81433873007002e-08,3.3348725668175292e-15,-4.267632466436027e-08,0.0008554083796674472,17.0,86.0,8.663200000000002,3.0
-7.185363657187832e-08,3.2464055931388778e-15,-4.518081127169335e-08,0.0008596466793237809,17.0,85.0,9.282000000000002,3.0
-6.592363995197855e-08,3.157370596067075e-15,-4.789436078418958e-08,0.0008635467360811077,17.0,84.0,9.900800000000002,3.0
-6.035339744099587e-08,3.0678006692734123e-15,-5.083062096500249e-08,0.0008671292027589912,17.0,83.0,10.519600000000002,3.0
-5.5142909038938654e-08,2.9777266689836562e-15,-5.400017374638255e-08,0.0008704147321769947,17.0,82.0,11.1384,3.0
-5.0292174745787695e-08,2.88717721397805e-15,-5.74080804533089e-08,0.0008734239771546806,17.0,81.0,11.757200000000001,3.0
-4.580119456156136e-08,2.7961786855913055e-15,-6.105034404360269e-08,0.0008761775905116128,17.0,80.0,12.376000000000001,3.0
-4.166996848625213e-08,2.7047552277126077e-15,-6.490898183916237e-08,0.000878696225067354,17.0,79.0,12.9948,3.0
-3.789849651986837e-08,2.6129287467856197e-15,-6.894544603941705e-08,0.000881000533641468,17.0,78.0,13.6136,3.0
-3.4486778662390014e-08,2.520718911808479e-15,-7.30923272505437e-08,0.000883111169053517,17.0,77.0,14.2324,3.0
-3.1434814913843806e-08,2.4281431543337942e-15,-7.724375540269037e-08,0.0008850487841230655,17.0,76.0,14.851200000000004,3.0
-2.8742605274208015e-08,2.3352166684686474e-15,-8.124582466308781e-08,0.0008868340316696755,17.0,75.0,15.470000000000004,3.0
-2.6410149743496025e-08,2.241952410874594e-15,-8.488980307378663e-08,0.0008884875645129109,17.0,74.0,16.088800000000003,3.0
-2.4437448321690275e-08,2.1483611007676704e-15,-8.791266062180561e-08,0.0008900300354723342,17.0,73.0,16.707600000000003,3.0
-2.2824501008820853e-08,2.0544512199183796e-15,-9.001078354897693e-08,0.0008914820973675095,17.0,72.0,17.326400000000003,3.0
-2.1571307804854336e-08,1.960229012651698e-15,-9.08720523755437e-08,0.0008928644030179991,17.0,71.0,17.945200000000003,3.0
-2.0677868709817454e-08,1.8656984858470814e-15,-9.022682714690435e-08,0.0008941976052433668,17.0,70.0,18.564000000000004,3.0
-2.014418372369267e-08,1.7708614089384554e-15,-8.790931582179968e-08,0.0008955023568631755,17.0,69.0,19.182800000000004,3.0
-1.9970252846493348e-08,1.6757173139142192e-15,-8.39106708760808e-08,0.0008967993106969887,17.0,68.0,19.801600000000004,3.0
-2.0156076078202776e-08,1.580263495317248e-15,-7.840134603511343e-08,0.000898109119564369,17.0,67.0,20.4204,3.0
-2.0701653418834328e-08,1.4844950102448893e-15,-7.170900701556034e-08,0.0008994524362848798,17.0,66.0,21.039200000000005,3.0
-2.160698486838967e-08,1.388404678348967e-15,-6.425721528505158e-08,0.0009008499136780847,17.0,65.0,21.658,3.0
-2.28720704268546e-08,1.291983081835776e-15,-5.6487368993006866e-08,0.0009023222045635464,17.0,64.0,22.2768,3.0
-2.4496910094245824e-08,1.1952185654660866e-15,-4.8790584643850095e-08,0.0009038899617608282,17.0,63.0,22.895600000000005,3.0
-2.648150387055082e-08,1.0980972365551426e-15,-4.1466573874465614e-08,0.0009055738380894932,17.0,62.0,23.514400000000002,3.0
-2.8825851755777097e-08,1.000602964972661e-15,-3.471199995927706e-08,0.0009073944863691048,17.0,61.0,24.133200000000002,3.0
-3.1529953749921315e-08,9.027173831428338e-16,-2.8630469625889843e-08,0.0009093725594192262,17.0,60.0,24.752000000000002,3.0
-3.459380985298683e-08,8.044198860443265e-16,-2.3253289807132153e-08,0.0009115287100594205,17.0,59.0,25.370800000000006,3.0
-3.8017420064964426e-08,7.056876312102779e-16,-1.856221779395851e-08,0.0009138835911092508,17.0,58.0,25.9896,3.0
-4.180078438586832e-08,6.06495538728301e-16,-1.4509190380966636e-08,0.0009164578553882807,17.0,57.0,26.608400000000003,3.0
-4.594390281568515e-08,5.068162912404833e-16,-1.1031198051974315e-08,0.0009192721557160727,17.0,56.0,27.2272,3.0
-2.3400822930983247e-07,1.8982321584229014e-14,-8.111817964784464e-08,0.0014580375955505738,137.0,99.0,0.6188000000000001,3.0
-2.1740000987255369e-07,1.8556074954749022e-14,-8.535452673450724e-08,0.0014702672645865774,137.0,98.0,1.2376000000000003,3.0
-2.0137105084593197e-07,1.812892365772334e-14,-9.002745718198439e-08,0.0014814267028707827,137.0,97.0,1.8564000000000005,3.0
-1.8592135222996065e-07,1.770114454462131e-14,-9.520770117209177e-08,0.0014915558601912811,137.0,96.0,2.4752000000000005,3.0
-1.710509140246539e-07,1.7273002695705622e-14,-1.0098164510957265e-07,0.0015006946863361649,137.0,95.0,3.0940000000000003,3.0
-1.5675973623000172e-07,1.6844751420032293e-14,-1.0745585457809946e-07,0.001508883131093525,137.0,94.0,3.712800000000001,3.0
-1.4304781884601325e-07,1.6416632255450704e-14,-1.1476324761807604e-07,0.0015161611442514535,137.0,93.0,4.331600000000001,3.0
-1.2991516187267857e-07,1.5988874968603554e-14,-1.2307166259988355e-07,0.0015225686755980415,137.0,92.0,4.950400000000001,3.0
-1.1736176530999588e-07,1.5561697554926904e-14,-1.3259597377240107e-07,0.0015281456749213804,137.0,91.0,5.5692,3.0
-1.0538762915797532e-07,1.513530623865014e-14,-1.436155871384337e-07,0.0015329320920095617,137.0,90.0,6.188000000000001,3.0
-9.39927534166118e-08,1.470989547279603e-14,-1.5650031452527145e-07,0.001536967876650677,137.0,89.0,6.8068,3.0
-8.317713808589866e-08,1.4285647939180635e-14,-1.7174969309989442e-07,0.0015402929786328175,137.0,88.0,7.425600000000002,3.0
-7.294078316584929e-08,1.3862734548413386e-14,-1.9005464359894464e-07,0.0015429473477440747,137.0,87.0,8.044400000000001,3.0
-6.328368865646197e-08,1.3441314439897048e-14,-2.1239777145203653e-07,0.001544970933772541,137.0,86.0,8.663200000000002,3.0
-5.420585455772172e-08,1.3021534981827728e-14,-2.4022377449951645e-07,0.0015464036865063065,137.0,85.0,9.282000000000002,3.0
-4.5707280869646884e-08,1.2603531771194887e-14,-2.7574451009542753e-07,0.001547285555733464,137.0,84.0,9.900800000000002,3.0
-3.778796759221908e-08,1.2187428633781325e-14,-3.225214111883286e-07,0.0015476564912421038,137.0,83.0,10.519600000000002,3.0
-3.044791472546506e-08,1.1773337624163166e-14,-3.866713937659762e-07,0.0015475564428203185,137.0,82.0,11.1384,3.0
-2.3687122269353064e-08,1.1361359025709904e-14,-4.796428581115355e-07,0.0015470253602561988,137.0,81.0,11.757200000000001,3.0
-1.750559022390148e-08,1.0951581350584358e-14,-6.256048045516041e-07,0.0015461031933378363,137.0,80.0,12.376000000000001,3.0
-1.1903318589115312e-08,1.0544081339742698e-14,-8.858102268542544e-07,0.0015448298918533231,137.0,79.0,12.9948,3.0
-6.8803073649778625e-09,1.0138923962934433e-14,-1.473614974607614e-06,0.00154324540559075,137.0,78.0,13.6136,3.0
-2.436556551492463e-09,9.736162418702413e-15,-3.995869668093165e-06,0.001541389684338208,137.0,77.0,14.2324,3.0
1.427933851314146e-09,9.335838134382836e-15,6.53800463221104e-06,0.0015393026778837905,137.0,76.0,14.851200000000004,3.0
4.713163843483743e-09,8.937980766105239e-15,1.896386602061921e-06,0.0015370243360155872,137.0,75.0,15.470000000000004,3.0
7.4191334249895875e-09,8.542608198792505e-15,1.151429379881316e-06,0.00153459460852169,137.0,74.0,16.088800000000003,3.0
9.545842595845046e-09,8.149726546160851e-15,8.537461690084988e-07,0.0015320534451901905,137.0,73.0,16.707600000000003,3.0
1.1093291356025061e-08,7.759330150719849e-15,6.994614944919436e-07,0.0015294407958091805,137.0,72.0,17.326400000000003,3.0
1.206147970556973e-08,7.371401583772407e-15,6.111523431381684e-07,0.0015267966101667509,137.0,71.0,17.945200000000003,3.0
1.2450407644440626e-08,6.985911645414772e-15,5.610990294389382e-07,0.0015241608380509937,137.0,70.0,18.564000000000004,3.0
1.2260075172661136e-08,6.6028193645365414e-15,5.385627144652615e-07,0.0015215734292500004,137.0,69.0,19.182800000000004,3.0
1.1490482290221238e-08,6.2220719988206516e-15,5.414978972741492e-07,0.001519074333551862,137.0,68.0,19.801600000000004,3.0
1.0141628997129286e-08,5.843605034743384e-15,5.761998428849536e-07,0.0015167035007446704,137.0,67.0,20.4204,3.0
8.21351529338027e-09,5.4673421875743574e-15,6.656519154448758e-07,0.0015145008806165168,137.0,66.0,21.039200000000005,3.0
5.706141178965826e-09,5.093195401376541e-15,8.925813858499073e-07,0.001512506422955493,137.0,65.0,21.658,3.0
2.6195066539043474e-09,4.72106484900624e-15,1.8022725164563112e-06,0.00151076007754969,137.0,64.0,22.2768,3.0
-1.0463882818225534e-09,4.350838932113105e-15,-4.1579583866659935e-06,0.0015093017941872002,137.0,63.0,22.895600000000005,3.0
-5.291543628196498e-09,3.982394281140129e-15,-7.525959457122415e-07,0.0015081715226561137,137.0,62.0,23.514400000000002,3.0
-1.0115959385239203e-08,3.615595755323649e-15,-3.574150130139292e-07,0.0015074092127445233,137.0,61.0,24.133200000000002,3.0
-1.5519635552932294e-08,3.2502964426933425e-15,-2.094312351348501e-07,0.0015070548142405195,137.0,60.0,24.752000000000002,3.0
-2.150257213129749e-08,2.8863376600722304e-15,-1.3423220452176042e-07,0.0015071482769321953,137.0,59.0,25.370800000000006,3.0
-2.8064769120289673e-08,2.523548953076677e-15,-8.991874981263448e-08,0.0015077295506076397,137.0,58.0,25.9896,3.0
-3.520622651997401e-08,2.16174809611639e-15,-6.140243672209338e-08,0.0015088385850549472,137.0,57.0,26.608400000000003,3.0
-4.2926944330288686e-08,1.8007410923944176e-15,-4.194896982508579e-08,0.0015105153300622068,137.0,56.0,27.2272,3.0
8.247294532218503e-09,4.618257250110951e-14,5.5997239240935056e-06,0.003574044206167425,257.0,99.0,0.6188000000000001,3.0
2.923882200708881e-08,4.490019547219494e-14,1.535636266786299e-06,0.0035587555522158636,257.0,98.0,1.2376000000000003,3.0
4.923278883562724e-08,4.3634589852649624e-14,8.862912478578406e-07,0.0035424453469697567,257.0,97.0,1.8564000000000005,3.0
6.822919501783548e-08,4.2385718485735174e-14,6.212255395165561e-07,0.0035251780060962545,257.0,96.0,2.4752000000000005,3.0
8.622804055371519e-08,4.115352929045619e-14,4.772638810552569e-07,0.003507017945262505,257.0,95.0,3.0940000000000003,3.0
1.032293254432513e-07,3.9937955261560244e-14,3.868857525714968e-07,0.0034880295801356597,257.0,94.0,3.712800000000001,3.0
1.192330496864422e-07,3.8738914469537875e-14,3.2490081039957507e-07,0.0034682773263828687,257.0,93.0,4.331600000000001,3.0
1.3423921328334128e-07,3.755631006062256e-14,2.797715298088923e-07,0.0034478255996712786,257.0,92.0,4.950400000000001,3.0
1.4824781623386676e-07,3.639003025679075e-14,2.4546756357870423e-07,0.0034267388156680426,257.0,91.0,5.5692,3.0
1.6125885853807036e-07,3.523994835576184e-14,2.1853031005699642e-07,0.00340508139004031,257.0,90.0,6.188000000000001,3.0
1.7327234019595383e-07,3.4105922730998174e-14,1.968342015374627e-07,0.0033829177384552284,257.0,89.0,6.8068,3.0
1.8428826120749534e-07,3.298779683170508e-14,1.7900107481378424e-07,0.003360312276579949,257.0,88.0,7.425600000000002,3.0
1.9430662157270666e-07,3.188539918283083e-14,1.640983664105332e-07,0.003337329420081621,257.0,87.0,8.044400000000001,3.0
2.0332742129156607e-07,3.079854338506667e-14,1.5147265031656691e-07,0.003314033584627396,257.0,86.0,8.663200000000002,3.0
2.113506603641153e-07,2.9727028114846784e-14,1.4065263890651207e-07,0.0032904891858844217,257.0,85.0,9.282000000000002,3.0
2.1837633879031433e-07,2.867063712434832e-14,1.3129003482322303e-07,0.0032667606395198486,257.0,84.0,9.900800000000002,3.0
2.244044565702048e-07,2.7629139241491378e-14,1.2312206122719143e-07,0.003242912361200826,257.0,83.0,10.519600000000002,3.0
2.2943501370372668e-07,2.6602288369939032e-14,1.1594694262442008e-07,0.003219008766594505,257.0,82.0,11.1384,3.0
2.3346801019094176e-07,2.5589823489097303e-14,1.0960740817625794e-07,0.003195114271368034,257.0,81.0,11.757200000000001,3.0
2.3650344603181825e-07,2.4591468654115176e-14,1.0397932489663062e-07,0.0031712932911885632,257.0,80.0,12.376000000000001,3.0
2.3854132122635287e-07,2.3606932995884582e-14,9.896370521685785e-08,0.003147610241723242,257.0,79.0,12.9948,3.0
2.3958163577456227e-07,2.2635910721040428e-14,9.44809924511076e-08,0.003124129538639221,257.0,78.0,13.6136,3.0
2.3962438967644815e-07,2.1678081111960564e-14,9.046692259177501e-08,0.003100915597603649,257.0,77.0,14.2324,3.0
2.386695829319721e-07,2.07331085267658e-14,8.686950499542855e-08,0.003078032834283677,257.0,76.0,14.851200000000004,3.0
2.3671721554119256e-07,1.9800642399319916e-14,8.36468203381443e-08,0.0030555456643464526,257.0,75.0,15.470000000000004,3.0
2.337672875040611e-07,1.888031723922963e-14,8.076543746054134e-08,0.003033518503459128,257.0,74.0,16.088800000000003,3.0
2.2981979882061112e-07,1.7971752631844634e-14,7.819932279147422e-08,0.0030120157672888508,257.0,73.0,16.707600000000003,3.0
2.248747494908042e-07,1.7074553238257574e-14,7.5929170691331e-08,0.0029911018715027735,257.0,72.0,17.326400000000003,3.0
2.1893213951470218e-07,1.618830879530406e-14,7.394213033859722e-08,0.002970841231768042,257.0,71.0,17.945200000000003,3.0
2.1199196889222485e-07,1.5312594115562648e-14,7.223195385928727e-08,0.0029512982637518097,257.0,70.0,18.564000000000004,3.0
2.0405423762344068e-07,1.444696908735486e-14,7.079965236504978e-08,0.0029325373831212242,257.0,69.0,19.182800000000004,3.0
1.9511894570830962e-07,1.3590978674745165e-14,6.96548386186076e-08,0.0029146230055434367,257.0,68.0,19.801600000000004,3.0
1.8518609314685335e-07,1.2744152917541003e-14,6.881808834011546e-08,0.002897619546685596,257.0,67.0,20.4204,3.0
1.7425567993907358e-07,1.1906006931292775e-14,6.832492883707187e-08,0.002881591422214851,257.0,66.0,21.039200000000005,3.0
1.6232770608493855e-07,1.1076040907293822e-14,6.82325967293485e-08,0.0028666030477983535,257.0,65.0,21.658,3.0
1.4940217158449e-07,1.0253740112580461e-14,6.863180102293066e-08,0.0028527188391032515,257.0,64.0,22.2768,3.0
1.354790764376912e-07,9.438574889931957e-15,6.9668137236475e-08,0.002840003211796696,257.0,63.0,22.895600000000005,3.0
1.2055842064457386e-07,8.630000657870538e-15,7.158355767875565e-08,0.002828520581545836,257.0,62.0,23.514400000000002,3.0
1.0464020420511132e-07,7.827457910661384e-15,7.480354200492892e-08,0.002818335364017822,257.0,61.0,24.133200000000002,3.0
8.772442711932692e-08,7.030372218312642e-15,8.014155747919102e-08,0.0028095119748798025,257.0,60.0,24.752000000000002,3.0
6.98110893871789e-08,6.238154226575407e-15,8.935764047425208e-08,0.0028021148297989297,257.0,59.0,25.370800000000006,3.0
5.0900191008757484e-08,5.45019965694374e-15,1.0707621226816264e-07,0.0027962083444423498,257.0,58.0,25.9896,3.0
3.099173198394069e-08,4.665889306654655e-15,1.5055271222248657e-07,0.0027918569344772153,257.0,57.0,26.608400000000003,3.0
1.0085712312818766e-08,3.884589048688129e-15,3.851576297442951e-07,0.0027891250155706758,257.0,56.0,27.2272,3.0
8.629931885028982e-07,8.818271501218201e-14,1.0218239979988656e-07,0.0078069273434098465,377.0,99.0,0.6188000000000001,3.0
8.826053627172934e-07,8.561948137786553e-14,9.700766049536255e-08,0.007729877239996694,377.0,98.0,1.2376000000000003,3.0
9.005370581210293e-07,8.309387144784004e-14,9.227146256614404e-08,0.007651972662033507,377.0,97.0,1.8564000000000005,3.0
9.167882747142263e-07,8.060576897539107e-14,8.792190214312768e-08,0.007573325006658831,377.0,96.0,2.4752000000000005,3.0
9.313590124968441e-07,7.815502905497054e-14,8.39150402866106e-08,0.00749404567101122,377.0,95.0,3.0940000000000003,3.0
9.442492714688427e-07,7.574147812219686e-14,8.021343559458187e-08,0.007414246052229229,377.0,94.0,3.712800000000001,3.0
9.554590516302423e-07,7.336491395385487e-14,7.678499023969341e-08,0.007334037547451411,377.0,93.0,4.331600000000001,3.0
9.649883529811561e-07,7.102510566789583e-14,7.36020341058798e-08,0.007253531553816311,377.0,92.0,4.950400000000001,3.0
9.728371755213707e-07,6.872179372343754e-14,7.064059171732166e-08,0.007172839468462491,377.0,91.0,5.5692,3.0
9.79005519251046e-07,6.645468992076417e-14,6.787979088371535e-08,0.007092072688528499,377.0,90.0,6.188000000000001,3.0
9.834933841701426e-07,6.422347740132649e-14,6.530138223097182e-08,0.007011342611152886,377.0,89.0,6.8068,3.0
9.863007702786531e-07,6.202781064774157e-14,6.288934624903238e-08,0.006930760633474207,377.0,88.0,7.425600000000002,3.0
9.87427677576598e-07,5.9867315483793e-14,6.062956998604984e-08,0.0068504381526310115,377.0,87.0,8.044400000000001,3.0
9.868741060639035e-07,5.774158907443083e-14,5.8509579610645766e-08,0.006770486565761856,377.0,86.0,8.663200000000002,3.0
9.846400557406566e-07,5.565019992577154e-14,5.6518318142065497e-08,0.006691017270005291,377.0,85.0,9.282000000000002,3.0
9.807255266068106e-07,5.359268788509809e-14,5.4645959986911097e-08,0.00661214166249987,377.0,84.0,9.900800000000002,3.0
9.75130518662399e-07,5.156856414085989e-14,5.288375571671908e-08,0.006533971140384145,377.0,83.0,10.519600000000002,3.0
9.678550319073748e-07,4.957731122267284e-14,5.122390191532058e-08,0.0064566171007966675,377.0,82.0,11.1384,3.0
9.58899066341805e-07,4.761838300131921e-14,4.9659432022374475e-08,0.00638019094087599,377.0,81.0,11.757200000000001,3.0
9.48262621965609e-07,4.5691204688747814e-14,4.8184124977990444e-08,0.006304804057760667,377.0,80.0,12.376000000000001,3.0
9.359456987788708e-07,4.379517283807388e-14,4.679242919243443e-08,0.006230567848589247,377.0,79.0,12.9948,3.0
9.2194829678149e-07,4.19296553435791e-14,4.547939997281301e-08,0.006157593710500288,377.0,78.0,13.6136,3.0
9.06270415973597e-07,4.009399144071165e-14,4.424064907562837e-08,0.0060859930406323365,377.0,77.0,14.2324,3.0
8.889120563550547e-07,3.828749170608611e-14,4.3072305558642447e-08,0.00601587723612395,377.0,76.0,14.851200000000004,3.0
8.6987321792596e-07,3.650943805748356e-14,4.197098761648631e-08,0.005947357694113678,377.0,75.0,15.470000000000004,3.0
8.491539006862626e-07,3.475908375385153e-14,4.0933785649174086e-08,0.0058805458117400745,377.0,74.0,16.088800000000003,3.0
8.267541046359963e-07,3.3035653395303984e-14,3.9958257491626167e-08,0.0058155529861416925,377.0,73.0,16.707600000000003,3.0
8.026738297751075e-07,3.1338342923121356e-14,3.904243761367143e-08,0.005752490614457084,377.0,72.0,17.326400000000003,3.0
7.769130761037431e-07,2.966631961975053e-14,3.818486331640673e-08,0.005691470093824796,377.0,71.0,17.945200000000003,3.0
7.49471843621646e-07,2.8018722108804868e-14,3.7384622714325065e-08,0.00563260282138339,377.0,70.0,18.564000000000004,3.0
7.203501323290497e-07,2.6394660355064172e-14,3.66414319516045e-08,0.005576000194271413,377.0,69.0,19.182800000000004,3.0
6.895479422258444e-07,2.4793215664474696e-14,3.595575324964757e-08,0.00552177360962742,377.0,68.0,19.801600000000004,3.0
