dI/dz, Integral_trapz, Conc.(mol/cm^3), D(cm^2/sec), Time(sec), Position(element), depth(μm), crystal
5.418360705828937e-07,1.9634258702042014e-15,3.6236529400709645e-09,0.0011067583312176245,7.0,99.0,0.272,1.0
5.248619548797564e-07,1.863962535901449e-15,3.5513386302279707e-09,0.0010872566974257326,7.0,98.0,0.544,1.0
5.081290693092593e-07,1.7684302661567105e-15,3.480277695115298e-09,0.00106834533036424,7.0,97.0,0.8160000000000001,1.0
4.91637413871378e-07,1.6767195442523177e-15,3.410479953201813e-09,0.0010500160883450192,7.0,96.0,1.088,1.0
4.7538698856613517e-07,1.5887222450550584e-15,3.341955676672959e-09,0.0010322608296799418,7.0,95.0,1.36,1.0
4.5937779339352697e-07,1.504331635016184e-15,3.274715618931747e-09,0.0010150714126808795,7.0,94.0,1.6320000000000001,1.0
4.43609828353525e-07,1.4234423721713963e-15,3.2087710442632835e-09,0.0009984396956597055,7.0,93.0,1.9040000000000001,1.0
4.2808309344618615e-07,1.3459505061408591e-15,3.1441337598866355e-09,0.00098235753692829,7.0,92.0,2.176,1.0
4.127975886714421e-07,1.2717534781291903e-15,3.0808161506520253e-09,0.0009668167947985064,7.0,91.0,2.4480000000000004,1.0
3.977533140293422e-07,1.2007501209254638e-15,3.0188312166693466e-09,0.0009518093275822267,7.0,90.0,2.72,1.0
3.829502695198637e-07,1.1328406589032157e-15,2.9581926142095457e-09,0.0009373269935913224,7.0,89.0,2.992,1.0
3.6838845514301414e-07,1.0679267080204332e-15,2.8989147002607543e-09,0.0009233616511376661,7.0,88.0,3.2640000000000002,1.0
3.54067870898805e-07,1.0059112758195624e-15,2.8410125811925436e-09,0.0009099051585331289,7.0,87.0,3.5360000000000005,1.0
3.3998851678720207e-07,9.466987614275085e-16,2.7845021660541694e-09,0.0008969493740895841,7.0,86.0,3.8080000000000003,1.0
3.2615039280824703e-07,8.90194955555631e-16,2.7294002251255964e-09,0.0008844861561189026,7.0,85.0,4.08,1.0
3.12553498961921e-07,8.363070404997503e-16,2.67572445446096e-09,0.0008725073629329568,7.0,84.0,4.352,1.0
2.991978352482011e-07,7.849435901401395e-16,2.623493547301188e-09,0.0008610048528436191,7.0,83.0,4.6240000000000006,1.0
2.860834016671273e-07,7.360145699415311e-16,2.572727273419105e-09,0.0008499704841627611,7.0,82.0,4.896000000000001,1.0
2.732101982186825e-07,6.894313369531142e-16,2.5234465676910074e-09,0.0008393961152022548,7.0,81.0,5.168,1.0
2.6057822490285336e-07,6.45106639808535e-16,2.4756736294793566e-09,0.0008292736042739726,7.0,80.0,5.44,1.0
2.48187481719676e-07,6.029546187258963e-16,2.4294320347990973e-09,0.0008195948096897859,7.0,79.0,5.712,1.0
2.3603796866910097e-07,5.628908055077587e-16,2.3847468637423716e-09,0.0008103515897615674,7.0,78.0,5.984,1.0
2.2412968575116256e-07,5.248321235411387e-16,2.3416448462959416e-09,0.0008015358028011889,7.0,77.0,6.256,1.0
2.1246263296586453e-07,4.886968877975118e-16,2.3001545305899914e-09,0.0007931393071205223,7.0,76.0,6.5280000000000005,1.0
2.0103681031317453e-07,4.544048048328087e-16,2.2603064788231483e-09,0.0007851539610314398,7.0,75.0,6.800000000000001,1.0
1.8985221779312684e-07,4.218769727874185e-16,2.2221334977878336e-09,0.0007775716228458132,7.0,74.0,7.072000000000001,1.0
1.789088554057005e-07,3.9103588138618593e-16,2.185670913267307e-09,0.0007703841508755149,7.0,73.0,7.344,1.0
1.6820672315091074e-07,3.618054119384142e-16,2.150956900895166e-09,0.0007635834034324165,7.0,72.0,7.6160000000000005,1.0
1.5774582102874234e-07,3.34110837337862e-16,2.1180328908807338e-09,0.00075716123882839,7.0,71.0,7.888000000000001,1.0
1.4752614903919915e-07,3.078788220627467e-16,2.0869440710537375e-09,0.0007511095153753081,7.0,70.0,8.16,1.0
1.375477071822944e-07,2.83037422175742e-16,2.0577400232533684e-09,0.0007454200913850419,7.0,69.0,8.432,1.0
1.2781049545800535e-07,2.595160853239786e-16,2.030475544234532e-09,0.0007400848251694643,7.0,68.0,8.704,1.0
1.1831451386635666e-07,2.372456507390439e-16,2.0052117275064587e-09,0.0007350955750404467,7.0,67.0,8.976,1.0
1.0905976240733315e-07,2.161583492369822e-16,1.9820174229762283e-09,0.0007304441993098614,7.0,66.0,9.248000000000001,1.0
1.0004624108092911e-07,1.9618780321829682e-16,1.960971257876617e-09,0.0007261225562895804,7.0,65.0,9.520000000000001,1.0
9.127394988716544e-08,1.7726902666794662e-16,1.9421645155829226e-09,0.0007221225042914756,7.0,64.0,9.792000000000002,1.0
8.274288882601935e-08,1.5933842515534688e-16,1.925705367749274e-09,0.0007184359016274194,7.0,63.0,10.064000000000002,1.0
7.445305789751362e-08,1.4233379583437058e-16,1.9117253186604693e-09,0.0007150546066092832,7.0,62.0,10.336,1.0
6.640445710162167e-08,1.2619432744334825e-16,1.9003894158825437e-09,0.0007119704775489398,7.0,61.0,10.608,1.0
3.0440594848602837e-06,1.774000638693805e-14,5.827746295750289e-09,0.003910679691273246,127.0,99.0,0.272,1.0
2.955439736865717e-06,1.7001174383936224e-14,5.752502469215019e-09,0.003794269209952718,127.0,98.0,0.544,1.0
2.8679804844811976e-06,1.628794590918659e-14,5.679238752607131e-09,0.003681290459653751,127.0,97.0,0.8160000000000001,1.0
2.781681727706569e-06,1.559956404373118e-14,5.607961503414934e-09,0.003571698214231947,127.0,96.0,1.088,1.0
2.696543466542032e-06,1.4935281812183753e-14,5.538676456543947e-09,0.0034654472475428993,127.0,95.0,1.36,1.0
2.6125657009874438e-06,1.4294362182729773e-14,5.471388596017732e-09,0.0033624923334422065,127.0,94.0,1.6320000000000001,1.0
2.529748431042799e-06,1.3676078067126436e-14,5.406102005759109e-09,0.0032627882457854666,127.0,93.0,1.9040000000000001,1.0
2.4480916567082734e-06,1.3079712320702661e-14,5.34281969584822e-09,0.003166289758428273,127.0,92.0,2.176,1.0
2.367595377983597e-06,1.2504557742359089e-14,5.2815433999574744e-09,0.003072951645226227,127.0,91.0,2.4480000000000004,1.0
2.2882595948689444e-06,1.1949917074568083e-14,5.222273338813419e-09,0.002982728680034925,127.0,90.0,2.72,1.0
2.210084307364331e-06,1.1415103003373728e-14,5.1650079435145974e-09,0.0028955756367099617,127.0,89.0,2.992,1.0
2.133069515469654e-06,1.0899438158391833e-14,5.109743531256656e-09,0.0028114472891069358,127.0,88.0,3.2640000000000002,1.0
2.057215219185001e-06,1.0402255112809925e-14,5.05647392445937e-09,0.0027302984110814444,127.0,87.0,3.5360000000000005,1.0
1.9825214185102845e-06,9.922896383387256e-15,5.005190002357486e-09,0.0026520837764890852,127.0,86.0,3.8080000000000003,1.0
1.908988113445649e-06,9.460714430454807e-15,4.955879171703478e-09,0.002576758159185452,127.0,85.0,4.08,1.0
1.836615303990908e-06,9.015071657915266e-15,4.908524740225019e-09,0.0025042763330261463,127.0,84.0,4.352,1.0
1.7654029901461796e-06,8.585340413243062e-15,4.863105172679114e-09,0.002434593071866763,127.0,83.0,4.6240000000000006,1.0
1.695351171911456e-06,8.170902987484332e-15,4.819593204558258e-09,0.0023676631495628997,127.0,82.0,4.896000000000001,1.0
1.6264598492867378e-06,7.771151615256941e-15,4.777954782385115e-09,0.002303441339970152,127.0,81.0,5.168,1.0
1.5587290222719478e-06,7.385488474750477e-15,4.738147791708948e-09,0.00224188241694412,127.0,80.0,5.44,1.0
1.4921586908672429e-06,7.0133256877262495e-15,4.700120523809772e-09,0.0021829411543403967,127.0,79.0,5.712,1.0
1.426748855072448e-06,6.6540853195172906e-15,4.6638098189883654e-09,0.0021265723260145814,127.0,78.0,5.984,1.0
1.3624995148876541e-06,6.3071993790283566e-15,4.6291388071051324e-09,0.002072730705822272,127.0,77.0,6.256,1.0
1.2994106703128499e-06,5.972109818735922e-15,4.596014143317801e-09,0.0020213710676190654,127.0,76.0,6.5280000000000005,1.0
1.2374823213480526e-06,5.648268534688187e-15,4.56432260667388e-09,0.001972448185260557,127.0,75.0,6.800000000000001,1.0
1.1767144679932202e-06,5.335137366505069e-15,4.533926888486093e-09,0.001925916832602345,127.0,74.0,7.072000000000001,1.0
1.1171071102483833e-06,5.032188097378221e-15,4.5046603420681284e-09,0.0018817317835000272,127.0,73.0,7.344,1.0
1.0586602481135627e-06,4.7389024540710075e-15,4.476320389393392e-09,0.0018398478118091986,127.0,72.0,7.6160000000000005,1.0
1.0013738815887087e-06,4.454772106918515e-15,4.448660174610196e-09,0.0018002196913854576,127.0,71.0,7.888000000000001,1.0
9.452480106738202e-07,4.179298669827555e-15,4.421377905729039e-09,0.001762802196084402,127.0,70.0,8.16,1.0
8.90282635368961e-07,3.9119937002766646e-15,4.394103113844754e-09,0.0017275500997616271,127.0,69.0,8.432,1.0
8.364777556740498e-07,3.652378699316098e-15,4.366378752502439e-09,0.001694418176272732,127.0,68.0,8.704,1.0
7.838333715891607e-07,3.3999851115678338e-15,4.3376376087109315e-09,0.0016633611994733121,127.0,67.0,8.976,1.0
7.323494831142555e-07,3.154354325225575e-15,4.307170822067006e-09,0.001634333943218965,127.0,66.0,9.248000000000001,1.0
6.820260902493286e-07,2.9150376720547446e-15,4.274085278745118e-09,0.0016072911813652876,127.0,65.0,9.520000000000001,1.0
6.32863192994382e-07,2.68159642739249e-15,4.237245042968228e-09,0.001582187687767878,127.0,64.0,9.792000000000002,1.0
5.848607913494289e-07,2.453601810147679e-15,4.195189430439625e-09,0.0015589782362823324,127.0,63.0,10.064000000000002,1.0
5.380188853144978e-07,2.2306349828009035e-15,4.146016141230787e-09,0.001537617600764247,127.0,62.0,10.336,1.0
4.923374748894899e-07,2.0122870514044784e-15,4.087210813794251e-09,0.0015180605550692214,127.0,61.0,10.608,1.0
1.0508644794032663e-05,3.6963344863888657e-14,3.5174226161758085e-09,0.01035018611387195,247.0,99.0,0.272,1.0
1.0213377746076174e-05,3.526845515425171e-14,3.4531627078809767e-09,0.00999691292863142,247.0,98.0,0.544,1.0
9.92171922721308e-06,3.363619817409722e-14,3.3901582380844414e-09,0.00965362054306477,247.0,97.0,0.8160000000000001,1.0
9.633669237442867e-06,3.206482802223706e-14,3.3284128022178447e-09,0.009320188237513023,247.0,96.0,1.088,1.0
9.349227776766064e-06,3.055261903979624e-14,3.2679296910193065e-09,0.00899649529231719,247.0,95.0,1.36,1.0
9.068394845182387e-06,2.909786581021296e-14,3.208711829047816e-09,0.008682420987818285,247.0,94.0,1.6320000000000001,1.0
8.79117044269168e-06,2.7698883159238526e-14,3.15076170343908e-09,0.00837784460435733,247.0,93.0,1.9040000000000001,1.0
8.517554569294385e-06,2.6354006154937416e-14,3.0940812812568394e-09,0.008082645422275337,247.0,92.0,2.176,1.0
8.247547224989978e-06,2.5061590107687238e-14,3.038671913481246e-09,0.0077967027219133294,247.0,91.0,2.4480000000000004,1.0
7.981148409778763e-06,2.3820010570178765e-14,2.9845342232946968e-09,0.00751989578361232,247.0,90.0,2.72,1.0
7.718358123660922e-06,2.2627663337415908e-14,2.9316679758678132e-09,0.00725210388771332,247.0,89.0,2.992,1.0
7.459176366636052e-06,2.1482964446715718e-14,2.88007192627946e-09,0.006993206314557349,247.0,88.0,3.2640000000000002,1.0
7.203603138704374e-06,2.0384350177708413e-14,2.8297436415097546e-09,0.006743082344485425,247.0,87.0,3.5360000000000005,1.0
6.9516384398657505e-06,1.9330277052337335e-14,2.780679291587357e-09,0.006501611257838565,247.0,86.0,3.8080000000000003,1.0
6.703282270120547e-06,1.8319221834858993e-14,2.73287340390181e-09,0.006268672334957778,247.0,85.0,4.08,1.0
6.458534629468125e-06,1.734968153184304e-14,2.6863185733621785e-09,0.006044144856184093,247.0,84.0,4.352,1.0
6.2173955179091235e-06,1.6420173392172254e-14,2.6410051194063763e-09,0.005827908101858515,247.0,83.0,4.6240000000000006,1.0
5.979864935443191e-06,1.5529234907042594e-14,2.596920678759722e-09,0.005619841352322065,247.0,82.0,4.896000000000001,1.0
5.745942882070428e-06,1.4675423809963147e-14,2.554049720152312e-09,0.00541982388791576,247.0,81.0,5.168,1.0
5.515629357790726e-06,1.3857318076756143e-14,2.512372963782081e-09,0.005227734988980616,247.0,80.0,5.44,1.0
5.288924362604415e-06,1.3073515925556972e-14,2.471866683893964e-09,0.005043453935857642,247.0,79.0,5.712,1.0
5.065827896511015e-06,1.2322635816814168e-14,2.4325018671283977e-09,0.004866860008887865,247.0,78.0,5.984,1.0
4.8463399595108366e-06,1.1603316453289402e-14,2.3942431918169805e-09,0.004697832488412297,247.0,77.0,6.256,1.0
4.630460551603827e-06,1.0914216780057505e-14,2.35704778356814e-09,0.004536250654771952,247.0,76.0,6.5280000000000005,1.0
4.418189672790001e-06,1.0254015984506453e-14,2.320863689410428e-09,0.0043819937883078485,247.0,75.0,6.800000000000001,1.0
4.209527323069193e-06,9.621413496337371e-15,2.2856279952406483e-09,0.004234941169361007,247.0,74.0,7.072000000000001,1.0
4.004473502441658e-06,9.015128987564512e-15,2.2512644875956088e-09,0.004094972078272437,247.0,73.0,7.344,1.0
3.803028210907287e-06,8.433902372515303e-15,2.217680728301311e-09,0.0039619657953831565,247.0,72.0,7.6160000000000005,1.0
3.6051914484660385e-06,7.876493807830302e-15,2.184764365615492e-09,0.0038358016010341827,247.0,71.0,7.888000000000001,1.0
3.4109632151178677e-06,7.341683692463223e-15,2.1523784425243435e-09,0.0037163587755665336,247.0,70.0,8.16,1.0
3.220343510862972e-06,6.82827266768092e-15,2.120355373471047e-09,0.0036035165993212217,247.0,69.0,8.432,1.0
3.033332335701101e-06,6.3350816170633975e-15,2.0884891320683975e-09,0.0034971543526392678,247.0,68.0,8.704,1.0
2.849929689632483e-06,5.86095166650381e-15,2.0565250040465446e-09,0.003397151315861684,247.0,67.0,8.976,1.0
2.6701355726569875e-06,5.404744184208452e-15,2.024145979535534e-09,0.003303386769329489,247.0,66.0,9.248000000000001,1.0
2.4939499847746307e-06,4.965340780696775e-15,1.9909544341345222e-09,0.0032157399933836987,247.0,65.0,9.520000000000001,1.0
2.3213729259854507e-06,4.5416433088013704e-15,1.956447091271812e-09,0.0031340902683653273,247.0,64.0,9.792000000000002,1.0
2.152404396289379e-06,4.132573863667979e-15,1.919980218769437e-09,0.0030583168746153946,247.0,63.0,10.064000000000002,1.0
1.9870443956865177e-06,3.737074782755489e-15,1.880720325558877e-09,0.0029882990924749143,247.0,62.0,10.336,1.0
1.825292924176696e-06,3.354108645835935e-15,1.8375728089500024e-09,0.0029239162022849058,247.0,61.0,10.608,1.0
2.1117054848065625e-05,4.145620982026419e-14,1.9631624825779948e-09,0.01739532258313237,367.0,99.0,0.272,1.0
2.0554634107515225e-05,3.959917717617098e-14,1.9265328182948608e-09,0.01680334766804216,367.0,98.0,0.544,1.0
1.999841542348427e-05,3.780539528609777e-14,1.8904195400252888e-09,0.01622697083985414,367.0,97.0,0.8160000000000001,1.0
1.9448398795971083e-05,3.607336383798383e-14,1.854824359394397e-09,0.015666027603607996,367.0,96.0,1.088,1.0
1.890458422497713e-05,3.440159425737742e-14,1.8197487893928563e-09,0.015120353464343369,367.0,95.0,1.36,1.0
1.8366971710501952e-05,3.2788609707435834e-14,1.7851941095269292e-09,0.014589783927099904,367.0,94.0,1.6320000000000001,1.0
1.783556125254476e-05,3.1232945088925396e-14,1.7511613257737607e-09,0.014074154496917284,367.0,93.0,1.9040000000000001,1.0
1.731035285110698e-05,2.9733147040221453e-14,1.7176511245014885e-09,0.013573300678835136,367.0,92.0,2.176,1.0
1.679134650618719e-05,2.8287773937308393e-14,1.6846638193598744e-09,0.013087057977893139,367.0,91.0,2.4480000000000004,1.0
1.6278542217786237e-05,2.6895395893779614e-14,1.6521992899581148e-09,0.01261526189913094,367.0,90.0,2.72,1.0
1.5771939985904267e-05,2.555459476083753e-14,1.6202569109238456e-09,0.012157747947588192,367.0,89.0,2.992,1.0
1.527153981054053e-05,2.42639641272936e-14,1.5888354696588248e-09,0.011714351628304559,367.0,88.0,3.2640000000000002,1.0
1.4777341691695718e-05,2.3022109319568334e-14,1.5579330707704925e-09,0.011284908446319688,367.0,87.0,3.5360000000000005,1.0
1.4289345629369165e-05,2.182764740169122e-14,1.5275470247446769e-09,0.010869253906673246,367.0,86.0,3.8080000000000003,1.0
1.3807551623561877e-05,2.0679207175300807e-14,1.4976737179104804e-09,0.010467223514404874,367.0,85.0,4.08,1.0
1.3331959674272541e-05,1.9575429179644662e-14,1.4683084601148702e-09,0.010078652774554246,367.0,84.0,4.352,1.0
1.2862569781502257e-05,1.8514965691579384e-14,1.4394453057277772e-09,0.009703377192161008,367.0,83.0,4.6240000000000006,1.0
1.2399381945250581e-05,1.74964807255706e-14,1.4110768426060456e-09,0.009341232272264816,367.0,82.0,4.896000000000001,1.0
1.1942396165517484e-05,1.6518650033692942e-14,1.3831939423839372e-09,0.008992053519905329,367.0,81.0,5.168,1.0
1.1491612442302976e-05,1.5580161105630092e-14,1.3557854638637422e-09,0.008655676440122202,367.0,80.0,5.44,1.0
1.1047030775607416e-05,1.467971316867476e-14,1.3288378992379157e-09,0.008331936537955087,367.0,79.0,5.712,1.0
1.0608651165430158e-05,1.3816017187728668e-14,1.3023349502479808e-09,0.008020669318443644,367.0,78.0,5.984,1.0
1.0176473611771661e-05,1.2987795865302587e-14,1.2762570179790886e-09,0.00772171028662753,367.0,77.0,6.256,1.0
9.75049811463179e-06,1.2193783641516293e-14,1.2505805855413747e-09,0.007434894947546403,367.0,76.0,6.5280000000000005,1.0
9.330724674010646e-06,1.1432726694098607e-14,1.2252774670270548e-09,0.007160058806239914,367.0,75.0,6.800000000000001,1.0
8.917153289907914e-06,1.070338293838736e-14,1.2003138883460746e-09,0.0068970373677477255,367.0,74.0,7.072000000000001,1.0
8.50978396232408e-06,1.0004522027329433e-14,1.1756493550979794e-09,0.006645666137109487,367.0,73.0,7.344,1.0
8.10861669125884e-06,9.334925351480712e-15,1.151235248491132e-09,0.006405780619364857,367.0,72.0,7.6160000000000005,1.0
7.713651476712284e-06,8.693386039006127e-15,1.1270130709498203e-09,0.006177216319553488,367.0,71.0,7.888000000000001,1.0
7.324888318684123e-06,8.078708955679621e-15,1.1029122362279126e-09,0.005959808742715046,367.0,70.0,8.16,1.0
6.942327217174906e-06,7.489710704884175e-15,1.078847261240449e-09,0.005753393393889179,367.0,69.0,8.432,1.0
6.565968172184069e-06,6.925219627611794e-15,1.054714163396291e-09,0.005557805778115548,367.0,68.0,8.704,1.0
6.195811183712099e-06,6.384075802463506e-15,1.0303857902006968e-09,0.0053728814004338045,367.0,67.0,8.976,1.0
5.831856251758692e-06,5.865131045649376e-15,1.00570569514306e-09,0.005198455765883606,367.0,66.0,9.248000000000001,1.0
5.47410337632391e-06,5.367248910988485e-15,9.804800059499092e-10,0.0050343643795046095,367.0,65.0,9.520000000000001,1.0
5.122552557407835e-06,4.88930468990895e-15,9.544664764519437e-10,0.0048804427463364705,367.0,64.0,9.792000000000002,1.0
4.777203795010307e-06,4.430185411447911e-15,9.273595185692414e-10,0.004736526371418847,367.0,63.0,10.064000000000002,1.0
4.438057089131524e-06,3.988789842251539e-15,8.987693853735664e-10,0.004602450759791391,367.0,62.0,10.336,1.0
4.105112439771199e-06,3.564028486575028e-15,8.681926594862457e-10,0.004478051416493767,367.0,61.0,10.608,1.0
3.6889197261368026e-05,1.2727015344665828e-13,3.450065680337835e-09,0.03504972426075864,487.0,99.0,0.272,1.0
3.598328003309844e-05,1.225995441050631e-13,3.4071253090961294e-09,0.033986932327796836,487.0,98.0,0.544,1.0
3.5085637480345516e-05,1.1805382450751568e-13,3.364733634201396e-09,0.03294982228953347,487.0,97.0,0.8160000000000001,1.0
3.4196269603104696e-05,1.1363029776054644e-13,3.322885773196439e-09,0.031938178112563914,487.0,96.0,1.088,1.0
3.331517640137902e-05,1.0932628078985084e-13,3.2815759242182937e-09,0.030951783763483464,487.0,95.0,1.36,1.0
3.2442357875168314e-05,1.0513910434028922e-13,3.240797254775482e-09,0.029990423208887413,487.0,94.0,1.6320000000000001,1.0
3.157781402447025e-05,1.0106611297588686e-13,3.2005417758673476e-09,0.02905388041537112,487.0,93.0,1.9040000000000001,1.0
3.0721544849288245e-05,9.710466507983397e-14,3.1608001992153623e-09,0.028141939349529847,487.0,92.0,2.176,1.0
2.987355034961877e-05,9.325213285448569e-14,3.1215617749858687e-09,0.027254383977958967,487.0,91.0,2.4480000000000004,1.0
2.9033830525464317e-05,8.95059023213621e-14,3.082814106904025e-09,0.026390998267253767,487.0,90.0,2.72,1.0
2.8202385376824523e-05,8.586337332114823e-14,3.0445429410984137e-09,0.025551566184009552,487.0,89.0,2.992,1.0
2.737921490369808e-05,8.232195951369405e-14,3.006731924317337e-09,0.02473587169482166,487.0,88.0,3.2640000000000002,1.0
2.6564319106086687e-05,7.887908837801438e-14,2.9693623263221834e-09,0.02394369876628539,487.0,87.0,3.5360000000000005,1.0
2.575769798398868e-05,7.553220121228914e-14,2.9324127202376915e-09,0.02317483136499607,487.0,86.0,3.8080000000000003,1.0
2.4959351537406057e-05,7.227875313386303e-14,2.8958586133754467e-09,0.022429053457548996,487.0,85.0,4.08,1.0
