dI/dz, Integral_trapz, Conc.(mol/cm^3), D(cm^2/sec), Time(sec), Position(element), depth(μm), crystal
-1.6757592396496585e-07,4.2503405458964716e-16,-2.536367065942639e-09,0.0005027923680911062,7.0,99.0,0.20400000000000001,2.0
-1.5658474820017218e-07,4.1879543160844893e-16,-2.6745608140141226e-09,0.0005059195828973041,7.0,98.0,0.40800000000000003,2.0
-1.4583292862461444e-07,4.1238702839895396e-16,-2.827804613733507e-09,0.0005088518688775839,7.0,97.0,0.6120000000000001,2.0
-1.3532046523824188e-07,4.0581267007412694e-16,-2.998900937560798e-09,0.0005115933566719422,7.0,96.0,0.8160000000000001,2.0
-1.2504735804108747e-07,3.9907618057925018e-16,-3.1914003368877543e-09,0.0005141481769203762,7.0,95.0,1.02,2.0
-1.1501360703315631e-07,3.921813826919234e-16,-3.409869430308926e-09,0.0005165204602628836,7.0,94.0,1.2240000000000002,2.0
-1.0521921221441796e-07,3.851320980220606e-16,-3.6602830406792075e-09,0.0005187143373394611,7.0,93.0,1.428,2.0
-9.566417358491042e-08,3.779321470118951e-16,-3.9506132008389415e-09,0.0005207339387901062,7.0,92.0,1.6320000000000001,2.0
-8.63484911445957e-08,3.7058534893597437e-16,-4.291740874955268e-09,0.0005225833952548158,7.0,91.0,1.836,2.0
-7.727216489350927e-08,3.6309552190116385e-16,-4.698917422613369e-09,0.0005242668373735876,7.0,90.0,2.04,2.0
-6.84351948316258e-08,3.554664828466478e-16,-5.194205755112089e-09,0.0005257883957864182,7.0,89.0,2.244,2.0
-5.983758095895286e-08,3.47702047543923e-16,-5.810763770387681e-09,0.000527152201133305,7.0,88.0,2.4480000000000004,2.0
-5.1479323275495555e-08,3.3980603059680524e-16,-6.600825515485259e-09,0.0005283623840542454,7.0,87.0,2.652,2.0
-4.336042178124627e-08,3.3178224544142677e-16,-7.651730121890218e-09,0.0005294230751892365,7.0,86.0,2.856,2.0
-3.548087647620499e-08,3.2363450434623633e-16,-9.121378513951864e-09,0.0005303384051782754,7.0,85.0,3.06,2.0
-2.784068736039202e-08,3.1536661841199884e-16,-1.1327544263891271e-08,0.0005311125046613593,7.0,84.0,3.2640000000000002,2.0
-2.043985443375918e-08,3.069823975717969e-16,-1.5018815254612285e-08,0.0005317495042784852,7.0,83.0,3.4680000000000004,2.0
-1.3278377696377441e-08,2.984856505910294e-16,-2.2479075186456036e-08,0.0005322535346696507,7.0,82.0,3.672,2.0
-6.3562571481758435e-09,2.898801850674111e-16,-4.560548421968778e-08,0.0005326287264748527,7.0,81.0,3.8760000000000003,2.0
3.2650721080759724e-10,2.811698074309742e-16,8.611442507977587e-07,0.0005328792103340885,7.0,80.0,4.08,2.0
6.769915380565283e-09,2.723583229440679e-16,4.023068349213638e-08,0.0005330091168873555,7.0,79.0,4.284,2.0
1.2973967361122551e-08,2.6344953570135745e-16,2.030601190587263e-08,0.0005330225767746505,7.0,78.0,4.488,2.0
1.893866315246927e-08,2.544472486298246e-16,1.3435333137368208e-08,0.0005329237206359709,7.0,77.0,4.692,2.0
2.4664002754600367e-08,2.4535526348876854e-16,9.947909345047591e-09,0.0005327166791113139,7.0,76.0,4.896000000000001,2.0
3.014998616752851e-08,2.361773808698048e-16,7.833415894703377e-09,0.0005324055828406764,7.0,75.0,5.1000000000000005,2.0
3.5396613391233436e-08,2.269174001968653e-16,6.410709343540339e-09,0.0005319945624640562,7.0,74.0,5.304,2.0
4.040388442573795e-08,2.1757911972619894e-16,5.385104002218099e-09,0.00053148774862145,7.0,73.0,5.508000000000001,2.0
4.517179927101416e-08,2.0816633654637069e-16,4.6083251034002285e-09,0.0005308892719528551,7.0,72.0,5.712,2.0
4.970035792710517e-08,1.9868284657826298e-16,3.997613998467946e-09,0.0005302032630982687,7.0,71.0,5.916,2.0
5.398956039395521e-08,1.8913244457507456e-16,3.503129923544446e-09,0.0005294338526976881,7.0,70.0,6.12,2.0
5.8039406671614976e-08,1.7951892412232117e-16,3.093052365921541e-09,0.0005285851713911104,7.0,69.0,6.324000000000001,2.0
6.184989676005405e-08,1.6984607763783479e-16,2.7461012311265552e-09,0.0005276613498185328,7.0,68.0,6.5280000000000005,2.0
6.542103065928512e-08,1.601176963717642e-16,2.4474957786229696e-09,0.0005266665186199524,7.0,67.0,6.732000000000001,2.0
6.875280836930308e-08,1.5033757040657483e-16,2.1866389747898344e-09,0.0005256048084353665,7.0,66.0,6.936000000000001,2.0
7.184522989010291e-08,1.4050948865704845e-16,1.955724671936841e-09,0.0005244803499047725,7.0,65.0,7.14,2.0
7.469829522170231e-08,1.3063723887028444e-16,1.7488650642234474e-09,0.0005232972736681672,7.0,64.0,7.344,2.0
7.731200436408356e-08,1.2072460762569784e-16,1.561524741451177e-09,0.0005220597103655481,7.0,63.0,7.548,2.0
7.968635731726947e-08,1.1077538033502118e-16,1.39014235390346e-09,0.000520771790636912,7.0,62.0,7.752000000000001,2.0
8.18213540812296e-08,1.00793341242303e-16,1.2318708529589796e-09,0.0005194376451222563,7.0,61.0,7.956,2.0
8.371699465595892e-08,9.078227342390888e-17,1.0843947969822045e-09,0.0005180614044615786,7.0,60.0,8.16,2.0
8.53732790415157e-08,8.074595878852101e-17,9.45798963036848e-10,0.0005166471992948755,7.0,59.0,8.364,2.0
8.679020723783152e-08,7.068817807713815e-17,8.144718203452502e-10,0.0005151991602621445,7.0,58.0,8.568,2.0
8.796777924495452e-08,6.061271086307579e-17,6.890330912446251e-10,0.0005137214180033826,7.0,57.0,8.772,2.0
8.890599506284416e-08,5.0523335551966046e-17,5.682781629771207e-10,0.0005122181031585874,7.0,56.0,8.976,2.0
-1.1071521612579598e-07,3.070538092409484e-15,-2.7733659381748405e-08,0.000872604734756727,127.0,99.0,0.20400000000000001,2.0
-1.003627484847258e-07,2.9964497034076046e-15,-2.985619414222832e-08,0.000872939064079201,127.0,98.0,0.40800000000000003,2.0
-9.02500442686108e-08,2.92291883397198e-15,-3.2386896401651725e-08,0.0008731195317407561,127.0,97.0,0.6120000000000001,2.0
-8.037710347738513e-08,2.84993722467322e-15,-3.5457077965929406e-08,0.0008731502766205971,127.0,96.0,0.8160000000000001,2.0
-7.074392611109182e-08,2.777496614425029e-15,-3.926127325847625e-08,0.0008730354375979296,127.0,95.0,1.02,2.0
-6.135051216972839e-08,2.705588740484209e-15,-4.410050780014844e-08,0.0008727791535519585,127.0,94.0,1.2240000000000002,2.0
-5.219686165326693e-08,2.634205338450657e-15,-5.046673794200778e-08,0.0008723855633618892,127.0,93.0,1.428,2.0
-4.328297456175813e-08,2.5633381422673664e-15,-5.922278143360684e-08,0.0008718588059069276,127.0,92.0,1.6320000000000001,2.0
-3.460885089514372e-08,2.4929788842204283e-15,-7.20329863529286e-08,0.0008712030200662781,127.0,91.0,1.836,2.0
-2.6174490653471824e-08,2.423119294939028e-15,-9.257560450818636e-08,0.0008704223447191467,127.0,90.0,2.04,2.0
-1.7979893836712045e-08,2.3537511033954493e-15,-1.3091017804507106e-07,0.0008695209187447385,127.0,89.0,2.244,2.0
-1.0025060444866916e-08,2.2848660369050726e-15,-2.2791543746501615e-07,0.0008685028810222587,127.0,88.0,2.4480000000000004,2.0
-2.3099904779643162e-09,2.2164558211263743e-15,-9.595086396544934e-07,0.0008673723704309127,127.0,87.0,2.652,2.0
5.1653160640261634e-09,2.148512180060925e-15,4.159497992822231e-07,0.000866133525849906,127.0,86.0,2.856,2.0
1.2400859181099467e-08,2.081026836053395e-15,1.6781311727377346e-07,0.0008647904861584435,127.0,85.0,3.06,2.0
1.9396638873240374e-08,2.01399150979155e-15,1.0383198465225103e-07,0.0008633473902357308,127.0,84.0,3.2640000000000002,2.0
2.6152655140484377e-08,1.9473979203062512e-15,7.446272318605518e-08,0.0008618083769609728,127.0,83.0,3.4680000000000004,2.0
3.266890798276811e-08,1.881237784971456e-15,5.7584960781785354e-08,0.0008601775852133753,127.0,82.0,3.672,2.0
3.894539740016e-08,1.8155028195042213e-15,4.661662072285755e-08,0.0008584591538721434,127.0,81.0,3.8760000000000003,2.0
4.49821233926043e-08,1.7501847379646976e-15,3.890845086811648e-08,0.0008566572218164828,127.0,80.0,4.08,2.0
5.077908596014155e-08,1.6852752527561308e-15,3.318837314399412e-08,0.0008547759279255981,127.0,79.0,4.284,2.0
5.6336285102759076e-08,1.6207660746248669e-15,2.8769487936035203e-08,0.000852819411078695,127.0,78.0,4.488,2.0
6.165372082044422e-08,1.5566489126603456e-15,2.524825577346444e-08,0.000850791810154979,127.0,77.0,4.692,2.0
6.673139311321977e-08,1.4929154742951033e-15,2.2372011202615678e-08,0.0008486972640336548,127.0,76.0,4.896000000000001,2.0
7.156930198105533e-08,1.4295574653047744e-15,1.997445029830225e-08,0.0008465399115939285,127.0,75.0,5.1000000000000005,2.0
7.616744742399148e-08,1.366566589808088e-15,1.7941609388601386e-08,0.0008443238917150045,127.0,74.0,5.304,2.0
8.052582944198759e-08,1.3039345502668701e-15,1.619274907570186e-08,0.0008420533432760888,127.0,73.0,5.508000000000001,2.0
8.464444803505133e-08,1.2416530474860445e-15,1.4669042994667234e-08,0.0008397324051563869,127.0,72.0,5.712,2.0
8.852330320323084e-08,1.1797137806136292e-15,1.3326590151129528e-08,0.0008373652162351031,127.0,71.0,5.916,2.0
9.216239494644754e-08,1.1181084471407401e-15,1.2131937845044449e-08,0.0008349559153914438,127.0,70.0,6.12,2.0
9.556172326476733e-08,1.0568287429015896e-15,1.1059121861725909e-08,0.0008325086415046136,127.0,69.0,6.324000000000001,2.0
9.872128815815218e-08,9.958663620734856e-16,1.0087655668330633e-08,0.0008300275334538181,127.0,68.0,6.5280000000000005,2.0
1.0164108962662748e-07,9.35212997176833e-16,9.20113116272447e-09,0.0008275167301182624,127.0,67.0,6.732000000000001,2.0
1.043211276701653e-07,8.748603390751338e-16,8.386223947283252e-09,0.0008249803703771521,127.0,66.0,6.936000000000001,2.0
1.0676140228879354e-07,8.148000769749852e-16,7.631972412379156e-09,0.0008224225931096921,127.0,65.0,7.14,2.0
1.0896191348248686e-07,7.550238984260816e-16,6.9292459566381825e-09,0.0008198475371950883,127.0,64.0,7.344,2.0
1.1092266125125539e-07,6.955234893212135e-16,6.270346216682948e-09,0.0008172593415125458,127.0,63.0,7.548,2.0
1.1264364559512701e-07,6.362905338962677e-16,5.648703311532326e-09,0.0008146621449412696,127.0,62.0,7.752000000000001,2.0
1.1412486651407384e-07,5.773167147302282e-16,5.058640876123467e-09,0.0008120600863604647,127.0,61.0,7.956,2.0
1.1536632400805282e-07,5.185937127451748e-16,4.4951914452000385e-09,0.0008094573046493375,127.0,60.0,8.16,2.0
1.1636801807716021e-07,4.60113207206284e-16,3.953948987093657e-09,0.0008068579386870926,127.0,59.0,8.364,2.0
1.1712994872132001e-07,4.018668757218284e-16,3.4309489597572117e-09,0.0008042661273529353,127.0,58.0,8.568,2.0
1.176521159405677e-07,3.438463942431775e-16,2.922568723004289e-09,0.000801686009526071,127.0,57.0,8.772,2.0
1.1793451973488047e-07,2.8604343706479696e-16,2.4254428449603156e-09,0.0007991217240857052,127.0,56.0,8.976,2.0
1.3068145803564666e-07,1.3421593716064395e-14,1.0270465234940459e-07,0.002398295178906377,247.0,99.0,0.20400000000000001,2.0
1.4143315054551964e-07,1.3115335312213896e-14,9.273169169764612e-08,0.0023930827738111483,247.0,98.0,0.40800000000000003,2.0
1.5182984710396623e-07,1.2810197470038257e-14,8.437206329573929e-08,0.0023876656449009236,247.0,97.0,0.6120000000000001,2.0
1.6187154771104224e-07,1.2506190019111357e-14,7.725996443449236e-08,0.0023820518972233517,247.0,96.0,0.8160000000000001,2.0
1.7155825236667158e-07,1.2203321991411167e-14,7.113223539564275e-08,0.002376249635826082,247.0,95.0,1.02,2.0
1.80889961070905e-07,1.1901601621319766e-14,6.579470497345396e-08,0.002370266965756762,247.0,94.0,1.2240000000000002,2.0
1.898666738237678e-07,1.1601036345623334e-14,6.110096159577373e-08,0.0023641119920630397,247.0,93.0,1.428,2.0
1.9848839062515863e-07,1.1301632803512139e-14,5.6938507929438794e-08,0.002357792819792565,247.0,92.0,1.6320000000000001,2.0
2.0675511147520418e-07,1.1003396836580562e-14,5.321946702101332e-08,0.0023513175539929855,247.0,91.0,1.836,2.0
2.1466683637379803e-07,1.0706333488827076e-14,4.987418489824019e-08,0.00234469429971195,247.0,90.0,2.04,2.0
2.2222356532099592e-07,1.0410447006654261e-14,4.684672839091863e-08,0.0023379311619971077,247.0,89.0,2.244,2.0
2.2942529831681306e-07,1.0115740838868786e-14,4.4091653854580475e-08,0.0023310362458961054,247.0,88.0,2.4480000000000004,2.0
2.3627203536118867e-07,9.822217636681432e-15,4.1571646943601363e-08,0.0023240176564565933,247.0,87.0,2.652,2.0
2.4276377645418857e-07,9.52987925370707e-15,3.925577115705083e-08,0.0023168834987262184,247.0,86.0,2.856,2.0
2.489005215957469e-07,9.238726745964676e-15,3.711814939853683e-08,0.002309641877752631,247.0,85.0,3.06,2.0
2.54682270785889e-07,8.948760371877325e-15,3.5136958470896207e-08,0.002302300898583479,247.0,84.0,3.2640000000000002,2.0
2.601090240247163e-07,8.65997959227219e-15,3.3293653016241736e-08,0.002294868666266409,247.0,83.0,3.4680000000000004,2.0
2.6518078131202594e-07,8.372383070380547e-15,3.157235991596673e-08,0.0022873532858490725,247.0,82.0,3.672,2.0
2.6989754264799035e-07,8.085968671837772e-15,2.9959400861918075e-08,0.002279762862379116,247.0,81.0,3.8760000000000003,2.0
2.7425930803249795e-07,7.800733464683334e-15,2.844291236875358e-08,0.002272105500904189,247.0,80.0,4.08,2.0
2.782660774656401e-07,7.51667371936081e-15,2.701254061515622e-08,0.0022643893064719406,247.0,79.0,4.284,2.0
2.8191785094739127e-07,7.233784908717874e-15,2.5659194280917568e-08,0.0022566223841300167,247.0,78.0,4.488,2.0
2.852146284776806e-07,6.952061708006301e-15,2.437484271095279e-08,0.0022488128389260686,247.0,77.0,4.692,2.0
2.8815641005660447e-07,6.671497994881964e-15,2.315234977272044e-08,0.0022409687759077433,247.0,76.0,4.896000000000001,2.0
2.907431956840968e-07,6.392086849404836e-15,2.19853360088608e-08,0.00223309830012269,247.0,75.0,5.1000000000000005,2.0
2.9297498536021356e-07,6.113820554038988e-15,2.0868063348555264e-08,0.0022252095166185567,247.0,74.0,5.304,2.0
2.9485177908487346e-07,5.836690593652598e-15,1.979533788728641e-08,0.002217310530442993,247.0,73.0,5.508000000000001,2.0
2.963735768581628e-07,5.560687655517936e-15,1.876242718553532e-08,0.0022094094466436455,247.0,72.0,5.712,2.0
2.975403786800511e-07,5.285801629311375e-15,1.7764989252081525e-08,0.0022015143702681646,247.0,71.0,5.916,2.0
2.983521845504928e-07,5.012021607113387e-15,1.6799010922828212e-08,0.002193633406364198,247.0,70.0,6.12,2.0
2.988089944695841e-07,4.7393358834085474e-15,1.5860753762855577e-08,0.0021857746599793938,247.0,69.0,6.324000000000001,2.0
2.9891080843720345e-07,4.467731955085526e-15,1.4946705936945495e-08,0.0021779462361614017,247.0,68.0,6.5280000000000005,2.0
2.9865762645346747e-07,4.197196521437097e-15,1.4053538733560664e-08,0.002170156239957869,247.0,67.0,6.732000000000001,2.0
2.980494485183101e-07,3.927715484160133e-15,1.3178066605007796e-08,0.0021624127764164444,247.0,66.0,6.936000000000001,2.0
2.970862746317264e-07,3.6592739473556034e-15,1.2317209712537904e-08,0.002154723950584778,247.0,65.0,7.14,2.0
2.957681047937366e-07,3.3918562175285825e-15,1.146795804738311e-08,0.0021470978675105167,247.0,64.0,7.344,2.0
2.9409493900436606e-07,3.125445803588241e-15,1.0627336241042357e-08,0.002139542632241309,247.0,63.0,7.548,2.0
2.920667772635742e-07,2.8600254168478507e-15,9.792368182522981e-09,0.002132066349824804,247.0,62.0,7.752000000000001,2.0
2.896836195713915e-07,2.5955769710247828e-15,8.960040525816171e-09,0.00212467712530865,247.0,61.0,7.956,2.0
2.869454659277571e-07,2.3320815822405097e-15,8.127264094243073e-09,0.0021173830637404955,247.0,60.0,8.16,2.0
2.838523163327723e-07,2.0695195690206018e-15,7.2908320628055566e-09,0.002110192270167989,247.0,59.0,8.364,2.0
2.80404170786341e-07,1.8078704522947307e-15,6.447373615110276e-09,0.002103112849638779,247.0,58.0,8.568,2.0
2.766010292885086e-07,1.5471129553966671e-15,5.59330151220425e-09,0.0020961529072005144,247.0,57.0,8.772,2.0
2.72442891839265e-07,1.2872250040642817e-15,4.72475165483016e-09,0.0020893205479008436,247.0,56.0,8.976,2.0
6.997801222801445e-07,5.292446966730947e-15,7.563014150053567e-09,0.0031448884354228685,367.0,99.0,0.20400000000000001,2.0
6.995357156903088e-07,5.143684946807496e-15,7.352998326513832e-09,0.003125973624135491,367.0,98.0,0.40800000000000003,2.0
6.99016272954699e-07,4.997635507429962e-15,7.1495267002944895e-09,0.0031072814524135115,367.0,97.0,0.6120000000000001,2.0
6.982217940733561e-07,4.854213381982923e-15,6.952251309235032e-09,0.0030888133012962012,367.0,96.0,0.8160000000000001,2.0
6.971522790460566e-07,4.713334656048079e-15,6.7608394861701335e-09,0.003070570551822835,367.0,95.0,1.02,2.0
6.958077278730441e-07,4.574916767404243e-15,6.5749726312884165e-09,0.0030525545850326827,367.0,94.0,1.2240000000000002,2.0
6.941881405542474e-07,4.438878506027331e-15,6.394345058219061e-09,0.0030347667819650157,367.0,93.0,1.428,2.0
6.922935170895957e-07,4.305140014090381e-15,6.2186629049903635e-09,0.003017208523659106,367.0,92.0,1.6320000000000001,2.0
6.901238574791396e-07,4.173622785963529e-15,6.0476431016438024e-09,0.0029998811911542272,367.0,91.0,1.836,2.0
6.87679161722869e-07,4.044249668214044e-15,5.881012386767442e-09,0.00298278616548965,367.0,90.0,2.04,2.0
6.849594298207839e-07,3.91694485960628e-15,5.7185063655976365e-09,0.0029659248277046466,367.0,89.0,2.244,2.0
6.819646617729552e-07,3.791633911101725e-15,5.559868602640388e-09,0.0029492985588384876,367.0,88.0,2.4480000000000004,2.0
6.786948575792513e-07,3.668243725858971e-15,5.404849741963206e-09,0.002932908739930446,367.0,87.0,2.652,2.0
6.751500172397734e-07,3.54670255923372e-15,5.253206648403507e-09,0.0029167567520197936,367.0,86.0,2.856,2.0
6.71330140754491e-07,3.4269400187787893e-15,5.104701562970698e-09,0.002900843976145801,367.0,85.0,3.06,2.0
6.672352281233131e-07,3.3088870642441046e-15,4.959101265607311e-09,0.002885171793347743,367.0,84.0,3.2640000000000002,2.0
6.628652793465437e-07,3.1924760075767046e-15,4.8161762382906304e-09,0.0028697415846648867,367.0,83.0,3.4680000000000004,2.0
6.582202944237469e-07,3.0776405129207437e-15,4.675699821159617e-09,0.002854554731136508,367.0,82.0,3.672,2.0
6.533002733552167e-07,2.964315596617478e-15,4.537447353868932e-09,0.0028396126138018783,367.0,81.0,3.8760000000000003,2.0
6.481052161409024e-07,2.8524376272052842e-15,4.401195293859732e-09,0.002824916613700267,367.0,80.0,4.08,2.0
6.426351227807331e-07,2.74194432541965e-15,4.2667203024245545e-09,0.0028104681118709487,367.0,79.0,4.284,2.0
6.368899932748202e-07,2.6327747641931727e-15,4.133798288548587e-09,0.002796268489353194,367.0,78.0,4.488,2.0
6.308698276230623e-07,2.5248693686555594e-15,4.002203399342377e-09,0.002782319127186274,367.0,77.0,4.692,2.0
6.2457462582549e-07,2.418169916133634e-15,3.871706944446516e-09,0.002768621406409462,367.0,76.0,4.896000000000001,2.0
6.180043878821234e-07,2.3126195361513277e-15,3.742076240067783e-09,0.002755176708062029,367.0,75.0,5.1000000000000005,2.0
6.111591137929424e-07,2.2081627104296897e-15,3.6130733561764477e-09,0.0027419864131832477,367.0,74.0,5.304,2.0
6.04038803557957e-07,2.104745272886871e-15,3.4844537478210576e-09,0.0027290519028123883,367.0,73.0,5.508000000000001,2.0
5.966434571771672e-07,2.002314409638144e-15,3.3559647483799977e-09,0.0027163745579887244,367.0,72.0,5.712,2.0
5.889730746505831e-07,1.9008186589958868e-15,3.2273438987403207e-09,0.0027039557597515265,367.0,71.0,5.916,2.0
5.810276559781541e-07,1.8002079114695935e-15,3.0983170817212854e-09,0.0026917968891400673,367.0,70.0,6.12,2.0
5.728072011599715e-07,1.700433409765866e-15,2.9685964253284155e-09,0.002679899327193618,367.0,69.0,6.324000000000001,2.0
5.643117101959136e-07,1.6014477487884203e-15,2.8378779313873202e-09,0.002668264454951451,367.0,68.0,6.5280000000000005,2.0
5.555411830860918e-07,1.5032048756380845e-15,2.7058387774019156e-09,0.0026568936534528383,367.0,67.0,6.732000000000001,2.0
5.464956198304656e-07,1.4056600896127981e-15,2.5721342287223884e-09,0.002645788303737051,367.0,66.0,6.936000000000001,2.0
5.371750204289946e-07,1.308770042207611e-15,2.4363940846735784e-09,0.0026349497868433623,367.0,65.0,7.14,2.0
5.275793848817496e-07,1.2124927371146852e-15,2.298218565508299e-09,0.002624379483811042,367.0,64.0,7.344,2.0
5.177087131887001e-07,1.1167875302232962e-15,2.1571735259094187e-09,0.0026140787756793633,367.0,63.0,7.548,2.0
5.075630053498464e-07,1.021615129619831e-15,2.0127848540018506e-09,0.0026040490434875974,367.0,62.0,7.752000000000001,2.0
4.971422613651781e-07,9.269375955877866e-16,1.864531880758575e-09,0.0025942916682750164,367.0,61.0,7.956,2.0
