dI/dz, Integral_trapz, Conc.(mol/cm^3), D(cm^2/sec), Time(sec), Position(element), depth(μm), crystal
5.544285362523116e-07,4.245716594530235e-15,7.65782479962048e-09,0.0017745471462950585,17.0,99.0,0.6188000000000001,3.0
5.423938887201169e-07,4.0905062254626095e-15,1.2896960102272242e-08,0.00174254289792915,17.0,98.0,1.2376000000000003,3.0
5.304138439410936e-07,3.9396736824469184e-15,1.2590315461908343e-08,0.0017112514887150073,17.0,97.0,1.8564000000000005,3.0
5.184884019152417e-07,3.793114058241057e-15,1.2289659694638626e-08,0.001680669722546404,17.0,96.0,2.4752000000000005,3.0
5.066175626425831e-07,3.6507228601830005e-15,1.1995040517987475e-08,0.0016507944033171136,17.0,95.0,3.0940000000000003,3.0
4.948013261230726e-07,3.5123960101908104e-15,1.170650653139766e-08,0.0016216223349209114,17.0,94.0,3.712800000000001,3.0
4.830396923567502e-07,3.378029844762637e-15,1.1424107236947856e-08,0.0015931503212515707,17.0,93.0,4.331600000000001,3.0
4.713326613435944e-07,3.247521114976724e-15,1.1147893060098108e-08,0.001565375166202866,17.0,92.0,4.950400000000001,3.0
4.5968023308361173e-07,3.1207669864913946e-15,1.0877915371565472e-08,0.0015382936736685721,17.0,91.0,5.5692,3.0
4.4808240757679717e-07,2.997665039545072e-15,1.0614226509442764e-08,0.001511902647542463,17.0,90.0,6.188000000000001,3.0
4.365391848231642e-07,2.878113268956267e-15,1.0356879802148735e-08,0.0014861988917183125,17.0,89.0,6.8068,3.0
4.2505056482270097e-07,2.7620100841235776e-15,1.0105929591892499e-08,0.0014611792100898949,17.0,88.0,7.425600000000002,3.0
4.1361654757541096e-07,2.6492543090256896e-15,9.861431258957781e-09,0.0014368404065509847,17.0,87.0,8.044400000000001,3.0
4.022371330812824e-07,2.5397451822213775e-15,9.623441246543532e-09,0.0014131792849953564,17.0,86.0,8.663200000000002,3.0
3.909123213403504e-07,2.4333823568495066e-15,9.39201708646835e-09,0.0013901926493167832,17.0,85.0,9.282000000000002,3.0
3.796421123525615e-07,2.3300659006290357e-15,9.167217425374521e-09,0.0013678773034090405,17.0,84.0,9.900800000000002,3.0
3.6842650611796745e-07,2.2296962958590007e-15,8.94910205214314e-09,0.0013462300511659022,17.0,83.0,10.519600000000002,3.0
3.572655026365432e-07,2.1321744394185433e-15,8.737731925517932e-09,0.0013252476964811415,17.0,82.0,11.1384,3.0
3.4615910190828216e-07,2.037401642766876e-15,8.533169203098444e-09,0.001304927043248534,17.0,81.0,11.757200000000001,3.0
3.351073039332009e-07,1.945279631943319e-15,8.335477270871834e-09,0.0012852648953618532,17.0,80.0,12.376000000000001,3.0
3.2411010871128785e-07,1.8557105475672735e-15,8.144720773672331e-09,0.0012662580567148738,17.0,79.0,12.9948,3.0
3.1316751624254956e-07,1.7685969448382196e-15,7.960965646662557e-09,0.0012479033312013698,17.0,78.0,13.6136,3.0
3.022795265269945e-07,1.683841793535744e-15,7.784279147636481e-09,0.0012301975227151144,17.0,77.0,14.2324,3.0
2.9144613956459257e-07,1.6013484780195152e-15,7.61472989034065e-09,0.0012131374351498838,17.0,76.0,14.851200000000004,3.0
2.806673553553721e-07,1.5210207972292888e-15,7.452387878914204e-09,0.001196719872399451,17.0,75.0,15.470000000000004,3.0
2.6994317389932984e-07,1.4427629646849117e-15,7.297324543150537e-09,0.0011809416383575903,17.0,74.0,16.088800000000003,3.0
2.5927359519645906e-07,1.3664796084863208e-15,7.1496127750635446e-09,0.0011657995369180759,17.0,73.0,16.707600000000003,3.0
2.486586192467514e-07,1.2920757713135393e-15,7.009326966476151e-09,0.0011512903719746823,17.0,72.0,17.326400000000003,3.0
2.38098246050222e-07,1.2194569104266839e-15,6.876543047808289e-09,0.0011374109474211838,17.0,71.0,17.945200000000003,3.0
2.2759247560687237e-07,1.1485288976659556e-15,6.751338528020779e-09,0.0011241580671513538,17.0,70.0,18.564000000000004,3.0
2.1714130791668253e-07,1.0791980194516508e-15,6.633792535869788e-09,0.0011115285350589681,17.0,69.0,19.182800000000004,3.0
2.0674474297967424e-07,1.0113709767841487e-15,6.523985862490069e-09,0.0010995191550377994,17.0,68.0,19.801600000000004,3.0
1.9640278079583744e-07,9.449548852439203e-16,6.422001005189176e-09,0.0010881267309816223,17.0,67.0,20.4204,3.0
1.8611542136517379e-07,8.798572749915278e-16,6.3279222128037365e-09,0.0010773480667842113,17.0,66.0,21.039200000000005,3.0
1.7588266468767327e-07,8.159860907676202e-16,6.241835532388417e-09,0.0010671799663393411,17.0,65.0,21.658,3.0
1.6570451076336092e-07,7.532496918929367e-16,6.163828857493142e-09,0.001057619233540785,17.0,64.0,22.2768,3.0
1.5558095959221008e-07,6.915568522683055e-16,6.093991977878059e-09,0.0010486626722823174,17.0,63.0,22.895600000000005,3.0
1.4551201117423407e-07,6.308167603746435e-16,6.03241663103797e-09,0.0010403070864577132,17.0,62.0,23.514400000000002,3.0
1.354976655094379e-07,5.709390192729578e-16,5.979196555215413e-09,0.0010325492799607456,17.0,61.0,24.133200000000002,3.0
1.255379225978032e-07,5.118336466043426e-16,5.934427544266218e-09,0.00102538605668519,17.0,60.0,24.752000000000002,3.0
1.1563278243934833e-07,4.534110745899846e-16,5.898207504362213e-09,0.0010188142205248196,17.0,59.0,25.370800000000006,3.0
1.0578224503406497e-07,3.9558215003115864e-16,5.870636512461673e-09,0.0010128305753734092,17.0,58.0,25.9896,3.0
9.598631038195308e-08,3.382581343092263e-16,5.85181687686881e-09,0.0010074319251247327,17.0,57.0,26.608400000000003,3.0
8.624497848301437e-08,2.8135070338564e-16,5.841853199744301e-09,0.0010026150736725645,17.0,56.0,27.2272,3.0
7.655824933724714e-08,2.247719478019424e-16,5.840852441757446e-09,0.0009983768249106789,17.0,55.0,27.846000000000004,3.0
6.692612294465976e-08,1.6843437267976474e-16,5.848923988947397e-09,0.00099471398273285,17.0,54.0,28.4648,3.0
5.734859930523385e-08,1.1225089772082727e-16,5.866179721828928e-09,0.000991623351032852,17.0,53.0,29.083600000000004,3.0
4.7825678418986115e-08,5.61348572069394e-17,5.892734086967616e-09,0.0009891017337044592,17.0,52.0,29.702400000000008,3.0
3.8357360285913205e-08,0.0,5.928704170898092e-09,0.0009871459346414457,17.0,51.0,30.321200000000005,3.0
7.894171254126666e-07,1.1900087807684116e-14,1.507452451258055e-08,0.0024659587850863235,137.0,99.0,0.6188000000000001,3.0
7.728441850264102e-07,1.1483463058048972e-14,2.5138855261957133e-08,0.002417107563163478,137.0,98.0,1.2376000000000003,3.0
7.563177295330073e-07,1.1077022494832645e-14,2.4593329366879225e-08,0.002369272510803708,137.0,97.0,1.8564000000000005,3.0
7.398377589325018e-07,1.0680580619279706e-14,2.405598196520919e-08,0.00232245196083297,137.0,96.0,2.4752000000000005,3.0
7.234042732249001e-07,1.0293950999981686e-14,2.3526939212852253e-08,0.0022766442460772215,137.0,95.0,3.0940000000000003,3.0
7.070172724101422e-07,9.916946272877046e-15,2.3006328697141044e-08,0.002231847699362422,137.0,94.0,3.712800000000001,3.0
6.906767564882916e-07,9.549378141251204e-15,2.2494279457500434e-08,0.002188060653514528,137.0,93.0,4.331600000000001,3.0
6.74382725459308e-07,9.191057375736505e-15,2.199092200556897e-08,0.002145281441359498,137.0,92.0,4.950400000000001,3.0
6.58135179323205e-07,8.841793814312258e-15,2.1496388346801683e-08,0.0021035083957232905,137.0,91.0,5.5692,3.0
6.41934118079991e-07,8.501396362304688e-15,2.1010812001599468e-08,0.0020627398494318617,137.0,90.0,6.188000000000001,3.0
6.257795417296657e-07,8.169672992386985e-15,2.053432802718007e-08,0.0020229741353111693,137.0,89.0,6.8068,3.0
6.096714502722143e-07,7.846430744579265e-15,2.006707303975427e-08,0.0019842095861871715,137.0,88.0,7.425600000000002,3.0
5.936098437076267e-07,7.5314757262486e-15,1.9609185237115266e-08,0.0019464445348858286,137.0,87.0,8.044400000000001,3.0
5.775947220359363e-07,7.224613112108998e-15,1.9160804421613405e-08,0.0019096773142330955,137.0,86.0,8.663200000000002,3.0
5.616260852571398e-07,6.92564714422141e-15,1.8722072023365338e-08,0.0018739062570549306,137.0,85.0,9.282000000000002,3.0
5.457039333712004e-07,6.634381131993727e-15,1.8293131124122427e-08,0.0018391296961772926,137.0,84.0,9.900800000000002,3.0
5.298282663781533e-07,6.3506174521807866e-15,1.7874126481565632e-08,0.0018053459644261384,137.0,83.0,10.519600000000002,3.0
5.139990842780016e-07,6.074157548884368e-15,1.746520455366857e-08,0.0017725533946274256,137.0,82.0,11.1384,3.0
4.982163870707088e-07,5.804801933553193e-15,1.7066513523855213e-08,0.0017407503196071128,137.0,81.0,11.757200000000001,3.0
4.824801747563016e-07,5.542350184982921e-15,1.6678203326602713e-08,0.0017099350721911585,137.0,80.0,12.376000000000001,3.0
4.6679044733478484e-07,5.2866009493161595e-15,1.630042567317188e-08,0.0016801059852055186,137.0,79.0,12.9948,3.0
4.5114720480613855e-07,5.0373519400424606e-15,1.5933334078102286e-08,0.0016512613914761527,137.0,78.0,13.6136,3.0
4.3555044717038786e-07,4.794399937998311e-15,1.557708388615708e-08,0.0016233996238290177,137.0,77.0,14.2324,3.0
4.2000017442750933e-07,4.557540791367148e-15,1.523183229950973e-08,0.001596519015090071,137.0,76.0,14.851200000000004,3.0
4.044963865775096e-07,4.326569415679348e-15,1.4897738405766739e-08,0.0015706178980852711,137.0,75.0,15.470000000000004,3.0
3.890390836204004e-07,4.101279793812227e-15,1.4574963206210846e-08,0.0015456946056405755,137.0,74.0,16.088800000000003,3.0
3.736282655561618e-07,3.881464975990047e-15,1.4263669644654899e-08,0.0015217474705819431,137.0,73.0,16.707600000000003,3.0
3.582639323848103e-07,3.666917079784012e-15,1.3964022636926639e-08,0.0014987748257353304,137.0,72.0,17.326400000000003,3.0
3.4294608410633765e-07,3.4574272901122714e-15,1.3676189100668445e-08,0.0014767750039266958,137.0,71.0,17.945200000000003,3.0
3.276747207207572e-07,3.2527858592399097e-15,1.3400337985905616e-08,0.0014557463379819965,137.0,70.0,18.564000000000004,3.0
3.124498422280339e-07,3.052782106778962e-15,1.3136640305966242e-08,0.0014356871607271917,137.0,69.0,19.182800000000004,3.0
2.972714486282229e-07,2.857204419688399e-15,1.2885269169261666e-08,0.0014165958049882372,137.0,68.0,19.801600000000004,3.0
2.82139539921269e-07,2.665840252274139e-15,1.2646399811169757e-08,0.0013984706035910929,137.0,67.0,20.4204,3.0
2.670541161072123e-07,2.47847612618904e-15,1.2420209627157556e-08,0.0013813098893617148,137.0,66.0,21.039200000000005,3.0
2.5201517718602107e-07,2.2948976304329023e-15,1.2206878205845959e-08,0.001365111995126062,137.0,65.0,21.658,3.0
2.3702272315772375e-07,2.1148894213524705e-15,1.2006587363261384e-08,0.001349875253710092,137.0,64.0,22.2768,3.0
2.2207675402230525e-07,1.9382352226414323e-15,1.181952117727907e-08,0.0013355979979397623,137.0,63.0,22.895600000000005,3.0
2.0717726977976058e-07,1.7647178253404156e-15,1.1645866023036367e-08,0.0013222785606410313,137.0,62.0,23.514400000000002,3.0
1.9232427043010983e-07,1.5941190878369916e-15,1.1485810608847516e-08,0.0013099152746398563,137.0,61.0,24.133200000000002,3.0
1.7751775597332617e-07,1.4262199358656756e-15,1.133954601276146e-08,0.0012985064727621953,137.0,60.0,24.752000000000002,3.0
1.6275772640943978e-07,1.2608003625079224e-15,1.1207265720015095e-08,0.0012880504878340058,137.0,59.0,25.370800000000006,3.0
1.4804418173842386e-07,1.0976394281921319e-15,1.1089165660889297e-08,0.001278545652681246,137.0,58.0,25.9896,3.0
1.3337712196028848e-07,9.365152606936453e-16,1.098544424961567e-08,0.001269990300129874,137.0,57.0,26.608400000000003,3.0
1.187565470750386e-07,7.772050551347473e-16,1.0896302423758987e-08,0.0012623827630058471,137.0,56.0,27.2272,3.0
1.0418245708267427e-07,6.194850739846646e-16,1.0821943684491825e-08,0.001255721374135123,137.0,55.0,27.846000000000004,3.0
8.96548519831871e-08,4.631306470595652e-16,1.0762574137606387e-08,0.0012500044663436597,137.0,54.0,28.4648,3.0
7.517373177657374e-08,3.079161715225618e-16,1.0718402535331408e-08,0.0012452303724574156,137.0,53.0,29.083600000000004,3.0
6.073909646285094e-08,1.536151118837078e-16,1.0689640318946067e-08,0.0012413974253023478,137.0,52.0,29.702400000000008,3.0
4.6350946042008664e-08,0.0,1.0676501662172311e-08,0.0012385039577044144,137.0,51.0,30.321200000000005,3.0
1.2689267888698082e-06,2.4841989352983694e-14,1.9577165184690952e-08,0.0038920046195846454,257.0,99.0,0.6188000000000001,3.0
1.2450615551429073e-06,2.3982027113072277e-14,3.603410089137603e-08,0.0038105966773318723,257.0,98.0,1.2376000000000003,3.0
1.2211614461152399e-06,2.3141781793758536e-14,3.5156547542986057e-08,0.00373067301074525,257.0,97.0,1.8564000000000005,3.0
1.197226461786866e-06,2.2320965719131902e-14,3.4293570589624026e-08,0.00365223893567587,257.0,96.0,2.4752000000000005,3.0
1.1732566021577122e-06,2.1519286953616258e-14,3.3445284115914795e-08,0.0035752997679748323,257.0,95.0,3.0940000000000003,3.0
1.1492518672278052e-06,2.0736449301969922e-14,3.261180154382857e-08,0.0034998608234932302,257.0,94.0,3.712800000000001,3.0
1.1252122569971583e-06,1.997215230928567e-14,3.1793235636985907e-08,0.0034259274180821597,257.0,93.0,4.331600000000001,3.0
1.1011377714657316e-06,1.9226091260990747e-14,3.098969850554089e-08,0.003353504867592718,257.0,92.0,4.950400000000001,3.0
1.0770284106335552e-06,1.8497957182846827e-14,3.0201301611121546e-08,0.0032825984878760007,257.0,91.0,5.5692,3.0
1.052884174500652e-06,1.7787436840950063e-14,2.9428155771243705e-08,0.0032132135947831016,257.0,90.0,6.188000000000001,3.0
1.028705063066986e-06,1.7094212741731043e-14,2.8670371164003992e-08,0.003145355504165118,257.0,89.0,6.8068,3.0
1.0044910763325732e-06,1.6417963131954813e-14,2.792805733287814e-08,0.0030790295318731437,257.0,88.0,7.425600000000002,3.0
9.80242214297384e-07,1.5758361998720877e-14,2.7201323191032304e-08,0.003014240993758276,257.0,87.0,8.044400000000001,3.0
9.559584769614414e-07,1.5115079069463184e-14,2.6490277026080598e-08,0.0029509952056716118,257.0,86.0,8.663200000000002,3.0
9.316398643247893e-07,1.448777981195015e-14,2.5795026504414554e-08,0.002889297483464243,257.0,85.0,9.282000000000002,3.0
9.072863763873303e-07,1.3876125434284637e-14,2.5115678675525797e-08,0.0028291531429872688,257.0,84.0,9.900800000000002,3.0
8.828980131491485e-07,1.3279772884903958e-14,2.4452339976921613e-08,0.0027705675000917838,257.0,83.0,10.519600000000002,3.0
8.5847477461023e-07,1.2698374852579873e-14,2.3805116237866053e-08,0.0027135458706288814,257.0,82.0,11.1384,3.0
8.340166607705182e-07,1.2131579766418621e-14,2.3174112684068353e-08,0.0026580935704496613,257.0,81.0,11.757200000000001,3.0
8.095236716300733e-07,1.1579031795860879e-14,2.2559433942071575e-08,0.0026042159154052165,257.0,80.0,12.376000000000001,3.0
7.849958071888786e-07,1.1040370850681767e-14,2.1961184043174477e-08,0.0025519182213466435,257.0,79.0,12.9948,3.0
7.604330674469273e-07,1.0515232580990875e-14,2.1379466427924422e-08,0.0025012058041250377,257.0,78.0,13.6136,3.0
7.358354524042197e-07,1.000324837723223e-14,2.0814383950220797e-08,0.0024520839795914946,257.0,77.0,14.2324,3.0
7.112029620607721e-07,9.504045370184333e-15,2.026603888147627e-08,0.0024045580635971104,257.0,76.0,14.851200000000004,3.0
6.86535596416558e-07,9.017246430960122e-15,1.9734532914680824e-08,0.0023586333719929804,257.0,75.0,15.470000000000004,3.0
6.618333554716006e-07,8.542470171007004e-15,1.9219967168607704e-08,0.0023143152206302003,257.0,74.0,16.088800000000003,3.0
6.370962392258768e-07,8.079330942106812e-15,1.8722442191710773e-08,0.002271608925359866,257.0,73.0,16.707600000000003,3.0
6.123242476794097e-07,7.627438836375866e-15,1.8242057966283818e-08,0.0022305198020330735,257.0,72.0,17.326400000000003,3.0
5.875173808321913e-07,7.186399686264914e-15,1.7778913912314764e-08,0.0021910531665009173,257.0,71.0,17.945200000000003,3.0
5.626756386842229e-07,6.755815064559179e-15,1.7333108891517475e-08,0.002153214334614494,257.0,70.0,18.564000000000004,3.0
5.37799021235483e-07,6.335282284378316e-15,1.690474121119568e-08,0.0021170086222248997,257.0,69.0,19.182800000000004,3.0
5.1288752848602e-07,5.92439439917645e-15,1.6493908628206273e-08,0.0020824413451832288,257.0,68.0,19.801600000000004,3.0
4.879411604357804e-07,5.522740202742154e-15,1.6100708352630853e-08,0.002049517819340577,257.0,67.0,20.4204,3.0
4.629599170848059e-07,5.129904229198451e-15,1.5725237051837106e-08,0.002018243360548041,257.0,66.0,21.039200000000005,3.0
4.3794379843305325e-07,4.745466753002825e-15,1.5367590854014905e-08,0.0019886232846567167,257.0,65.0,21.658,3.0
4.1289280448057414e-07,4.369003788947206e-15,1.502786535215955e-08,0.001960662907517698,257.0,64.0,22.2768,3.0
3.878069352273252e-07,4.0000870921579815e-15,1.470615560756161e-08,0.0019343675449820825,257.0,63.0,22.895600000000005,3.0
3.62686190673328e-07,3.638284158095992e-15,1.4402556153711589e-08,0.0019097425129009648,257.0,62.0,23.514400000000002,3.0
3.3753057081857765e-07,3.2831582225565316e-15,1.4117160999807336e-08,0.0018867931271254411,257.0,61.0,24.133200000000002,3.0
3.1234007566307747e-07,2.9342682616693486e-15,1.3850063634457977e-08,0.0018655247035066068,257.0,60.0,24.752000000000002,3.0
2.8711470520682406e-07,2.5911689918986423e-15,1.3601357029254311e-08,0.0018459425578955576,257.0,59.0,25.370800000000006,3.0
2.618544594498175e-07,2.253410870043068e-15,1.3371133642351375e-08,0.0018280520061433891,257.0,58.0,25.9896,3.0
2.3655933839205442e-07,1.920540093235736e-15,1.3159485421998961e-08,0.0018118583641011969,257.0,57.0,26.608400000000003,3.0
2.1122934203354146e-07,1.5920985989442054e-15,1.2966503810062628e-08,0.001797366947620077,257.0,56.0,27.2272,3.0
1.8586447037427873e-07,1.2676240649704922e-15,1.2792279745488941e-08,0.0017845830725511248,257.0,55.0,27.846000000000004,3.0
1.6046472341426441e-07,9.466499094510667e-16,1.2636903667769634e-08,0.001773512054745436,257.0,54.0,28.4648,3.0
1.3503010115348357e-07,6.287052908568493e-16,1.2500465520357862e-08,0.0017641592100541064,257.0,53.0,29.083600000000004,3.0
1.0956060359196291e-07,3.133151079932176e-16,1.2383054754096267e-08,0.0017565298543282318,257.0,52.0,29.702400000000008,3.0
8.405623072968574e-08,0.0,1.2284760330517027e-08,0.0017506293034189075,257.0,51.0,30.321200000000005,3.0
2.1248252769318135e-06,4.513680313367486e-14,2.1242595155330183e-08,0.006444067220505125,377.0,99.0,0.6188000000000001,3.0
2.0899122247169054e-06,4.359706643637128e-14,4.410203633373821e-08,0.006306827162209214,377.0,98.0,1.2376000000000003,3.0
2.0547502757106403e-06,4.20911709053416e-14,4.282741922984311e-08,0.006171781494630692,377.0,97.0,1.8564000000000005,3.0
2.0193394299130584e-06,4.061867866887312e-14,4.1583085727057956e-08,0.006038950941665553,377.0,96.0,2.4752000000000005,3.0
1.9836796873241136e-06,3.9179142456301186e-14,4.0368665280781415e-08,0.00590835622720979,377.0,95.0,3.0940000000000003,3.0
1.947771047943792e-06,3.777210559800914e-14,3.9183797620110233e-08,0.005780018075159401,377.0,94.0,3.712800000000001,3.0
1.9116135117721472e-06,3.639710202542835e-14,3.802813239412835e-08,0.0056539572094103764,377.0,93.0,4.331600000000001,3.0
1.8752070788091188e-06,3.50536562710382e-14,3.6901328832584444e-08,0.0055301943538587145,377.0,92.0,4.950400000000001,3.0
1.838551749054727e-06,3.374128346836607e-14,3.580305542101667e-08,0.00540875023240041,377.0,91.0,5.5692,3.0
1.801647522509019e-06,3.245948935198739e-14,3.473298958836336e-08,0.005289645568931455,377.0,90.0,6.188000000000001,3.0
1.7644943991719578e-06,3.120777025752552e-14,3.369081740735489e-08,0.005172901087347842,377.0,89.0,6.8068,3.0
1.7270923790435027e-06,2.998561312165193e-14,3.2676233307082364e-08,0.005058537511545573,377.0,88.0,7.425600000000002,3.0
1.689441462123728e-06,2.8792495482086065e-14,3.1688939796821414e-08,0.004946575565420637,377.0,87.0,8.044400000000001,3.0
1.6515416484125695e-06,2.762788547759537e-14,3.0728647200390135e-08,0.004837035972869031,377.0,86.0,8.663200000000002,3.0
1.6133929379101117e-06,2.6491241847995323e-14,2.9795073401676725e-08,0.004729939457786746,377.0,85.0,9.282000000000002,3.0
1.5749953306162234e-06,2.538201393414939e-14,2.8887943599092135e-08,0.0046253067440697815,377.0,84.0,9.900800000000002,3.0
1.5363488265310353e-06,2.4299641677969087e-14,2.8006990070678614e-08,0.00452315855561413,377.0,83.0,10.519600000000002,3.0
1.4974534256544939e-06,2.324355562241392e-14,2.7151951946897488e-08,0.004423515616315784,377.0,82.0,11.1384,3.0
