dI/dz, Integral_trapz, Conc.(mol/cm^3), D(cm^2/sec), Time(sec), Position(element), depth(μm), crystal
-2.1280319506249012e-07,1.7503610868939185e-15,-8.225257550197595e-09,0.0008480236460430375,17.0,99.0,0.6188000000000001,3.0
-1.9844795983031033e-07,1.6838768020747951e-15,-8.485231108017695e-09,0.0008562853736072587,17.0,98.0,1.2376000000000003,3.0
-1.8443002633704892e-07,1.6199294632054939e-15,-8.783436707019963e-09,0.0008638932121868608,17.0,97.0,1.8564000000000005,3.0
-1.7074939458271255e-07,1.5584228356235153e-15,-9.12695965588681e-09,0.0008708637796274589,17.0,96.0,2.4752000000000005,3.0
-1.5740606456729364e-07,1.4992619370267035e-15,-9.524804150006208e-09,0.0008772136937746682,17.0,95.0,3.0940000000000003,3.0
-1.444000362908023e-07,1.442353037473245e-15,-9.988591931989129e-09,0.0008829595724741046,17.0,94.0,3.712800000000001,3.0
-1.3173130975322845e-07,1.3876036593816711e-15,-1.0533590396854487e-08,0.0008881180335713831,17.0,93.0,4.331600000000001,3.0
-1.1939988495457294e-07,1.3349225775308582e-15,-1.1180266865740656e-08,0.0008927056949121191,17.0,92.0,4.950400000000001,3.0
-1.0740576189484748e-07,1.28421981906002e-15,-1.1956712530164802e-08,0.0008967391743419285,17.0,91.0,5.5692,3.0
-9.574894057404202e-08,1.2354066634687097e-15,-1.290256222222509e-08,0.0009002350897064262,17.0,90.0,6.188000000000001,3.0
-8.442942099214992e-08,1.1883956426168543e-15,-1.4075610476202945e-08,0.0009032100588512274,17.0,89.0,6.8068,3.0
-7.344720314918115e-08,1.143100540724687e-15,-1.556356800139681e-08,0.0009056806996219479,17.0,88.0,7.425600000000002,3.0
-6.280228704513909e-08,1.099436394372804e-15,-1.7506311411598513e-08,0.0009076636298642032,17.0,87.0,8.044400000000001,3.0
-5.249467268002206e-08,1.0573194925021387e-15,-2.0141462714644636e-08,0.0009091754674236083,17.0,86.0,8.663200000000002,3.0
-4.252436005381167e-08,1.016667376413967e-15,-2.3907881861771555e-08,0.0009102328301457785,17.0,85.0,9.282000000000002,3.0
-3.289134916654303e-08,9.77398839769912e-16,-2.971598503974166e-08,0.0009108523358763302,17.0,84.0,9.900800000000002,3.0
-2.3595640018171e-08,9.394339285919364e-16,-3.98138778125314e-08,0.0009110506024608774,17.0,83.0,10.519600000000002,3.0
-1.4637232608747397e-08,9.026939412623494e-16,-6.16710798681226e-08,0.0009108442477450366,17.0,82.0,11.1384,3.0
-6.016126938225424e-09,8.671014285238001e-16,-1.4412951013622876e-07,0.0009102498895744226,17.0,81.0,11.757200000000001,3.0
2.2676769933681775e-09,8.325801934792828e-16,3.671511400936571e-07,0.0009092841457946509,17.0,80.0,12.376000000000001,3.0
1.0214179186038423e-08,7.990552915921398e-16,7.823000527387987e-08,0.0009079636342513371,17.0,79.0,12.9948,3.0
1.7823379639788653e-08,7.6645303068605e-16,4.3002676606575296e-08,0.0009063049727900964,17.0,78.0,13.6136,3.0
2.509527835462054e-08,7.347009709450371e-16,2.927646231147558e-08,0.000904324779256544,17.0,77.0,14.2324,3.0
3.2029875330524054e-08,7.037279249134681e-16,2.1970985451911034e-08,0.0009020396714962961,17.0,76.0,14.851200000000004,3.0
3.8627170567514245e-08,6.734639574960569e-16,1.7434980289818206e-08,0.0008994662673549672,17.0,75.0,15.470000000000004,3.0
4.488716406557773e-08,6.438403859578566e-16,1.4343530034939174e-08,0.0008966211846781727,17.0,74.0,16.088800000000003,3.0
5.080985582471953e-08,6.147897799242674e-16,1.209981350951139e-08,0.0008935210413115288,17.0,73.0,16.707600000000003,3.0
5.6395245844942985e-08,5.862459613810278e-16,1.0395308196596806e-08,0.0008901824551006503,17.0,72.0,17.326400000000003,3.0
6.16433341262481e-08,5.581440046742223e-16,9.054409736032776e-09,0.0008866220438911523,17.0,71.0,17.945200000000003,3.0
6.655412066862151e-08,5.30420236510281e-16,7.969758013200827e-09,0.0008828564255286511,17.0,70.0,18.564000000000004,3.0
7.11276054720799e-08,5.030122359559717e-16,7.071969211074057e-09,0.0008789022178587613,17.0,69.0,19.182800000000004,3.0
7.536378853661829e-08,4.75858834438414e-16,6.31415755070753e-09,0.0008747760387270985,17.0,68.0,19.801600000000004,3.0
7.926266986222496e-08,4.489001157450606e-16,5.663449345389735e-09,0.0008704945059792787,17.0,67.0,20.4204,3.0
8.282424944892667e-08,4.2207741602371857e-16,5.09606086178893e-09,0.0008660742374609164,17.0,66.0,21.039200000000005,3.0
8.604852729669331e-08,3.9533332378252616e-16,4.594306680222732e-09,0.0008615318510176274,17.0,65.0,21.658,3.0
8.893550340554661e-08,3.6861167988997597e-16,4.144707858785076e-09,0.000856883964495027,17.0,64.0,22.2768,3.0
9.148517777547491e-08,3.41857577574897e-16,3.736753711228413e-09,0.0008521471957387307,17.0,63.0,22.895600000000005,3.0
9.369755040648318e-08,3.1501736242646403e-16,3.3620661485795594e-09,0.0008473381625943537,17.0,62.0,23.514400000000002,3.0
9.557262129856141e-08,2.8803863239419595e-16,3.0138195278162953e-09,0.0008424734829075119,17.0,61.0,24.133200000000002,3.0
9.711039045172964e-08,2.60870237787954e-16,2.686326731613997e-09,0.0008375697745238204,17.0,60.0,24.752000000000002,3.0
9.831085786596952e-08,2.3346228127794183e-16,2.374735470177961e-09,0.0008326436552888944,17.0,59.0,25.370800000000006,3.0
9.917402354129941e-08,2.0576611789470926e-16,2.074798526340129e-09,0.000827711743048349,17.0,58.0,25.9896,3.0
9.969988747768504e-08,1.7773435502914556e-16,1.7826936371309977e-09,0.0008227906556478008,17.0,57.0,26.608400000000003,3.0
9.988844967517072e-08,1.493208524324862e-16,1.4948760634294128e-09,0.000817897010932864,17.0,56.0,27.2272,3.0
-1.3310817679512558e-07,1.3906155899283685e-14,-1.0447258939386905e-07,0.0014259942665833618,137.0,99.0,0.6188000000000001,3.0
-1.1911969517097421e-07,1.3554830781193298e-14,-1.1379168458866399e-07,0.0014301949203895496,137.0,98.0,1.2376000000000003,3.0
-1.055318976348895e-07,1.3206017634868162e-14,-1.2513768756966017e-07,0.0014336278988065095,137.0,97.0,1.8564000000000005,3.0
-9.234478418687817e-08,1.2859783221668158e-14,-1.3925836023011121e-07,0.001436318503823188,137.0,96.0,2.4752000000000005,3.0
-7.955835482693019e-08,1.2516189005600598e-14,-1.5732086256469343e-07,0.0014382920374285308,137.0,95.0,3.0940000000000003,3.0
-6.717260955505222e-08,1.2175291153320232e-14,-1.812538061863118e-07,0.0014395738016114833,137.0,94.0,3.712800000000001,3.0
-5.5187548371254315e-08,1.1837140534129234e-14,-2.144893347046175e-07,0.0014401890983609935,137.0,93.0,4.331600000000001,3.0
-4.3603171275503046e-08,1.150178271997721e-14,-2.637831695154498e-07,0.0014401632296660045,137.0,92.0,4.950400000000001,3.0
-3.241947826784018e-08,1.1169257985461212e-14,-3.4452306397974984e-07,0.0014395214975154642,137.0,91.0,5.5692,3.0
-2.1636469348237327e-08,1.0839601307825706e-14,-5.009875286657517e-07,0.001438289203898318,137.0,90.0,6.188000000000001,3.0
-1.1254144516706167e-08,1.0512842366962603e-14,-9.341307419108452e-07,0.0014364916508035125,137.0,89.0,6.8068,3.0
-1.2725037732350144e-09,1.0189005545411245e-14,-8.007053306811273e-06,0.001434154140219992,137.0,88.0,7.425600000000002,3.0
8.308452882154417e-09,9.868109928358394e-15,1.1877193104812496e-06,0.0014313019741367043,137.0,87.0,8.044400000000001,3.0
1.748872544947716e-08,9.550169303638255e-15,5.460757750030186e-07,0.001427960454542595,137.0,86.0,8.663200000000002,3.0
2.626831392874826e-08,9.235192161732466e-15,3.515715621026364e-07,0.0014241548834266087,137.0,85.0,9.282000000000002,3.0
3.464721831991757e-08,8.923181695770091e-15,2.5754395672914504e-07,0.0014199105627776937,137.0,84.0,9.900800000000002,3.0
4.2625438623051946e-08,8.614135801527631e-15,2.0208908294656433e-07,0.0014152527945847939,137.0,83.0,10.519600000000002,3.0
5.020297483809625e-08,8.308047077429013e-15,1.6548913892498055e-07,0.0014102068808368561,137.0,82.0,11.1384,3.0
5.7379826965077205e-08,8.004902824545612e-15,1.3950726671618572e-07,0.0014047981235228268,137.0,81.0,11.757200000000001,3.0
6.415599500399481e-08,7.70468504659621e-15,1.2009298657306246e-07,0.0013990518246316508,137.0,80.0,12.376000000000001,3.0
7.053147895483737e-08,7.407370449947042e-15,1.050221909381784e-07,0.001392993286152275,137.0,79.0,12.9948,3.0
7.650627881760992e-08,7.112930443611767e-15,9.297185216090447e-08,0.0013866478100736453,137.0,78.0,13.6136,3.0
8.208039459232746e-08,6.821331139251475e-15,8.310548667719374e-08,0.0013800406983847065,137.0,77.0,14.2324,3.0
8.725382627895827e-08,6.5325333511746895e-15,7.486815913710876e-08,0.001373197253074406,137.0,76.0,14.851200000000004,3.0
9.202657387752406e-08,6.246492596337367e-15,6.787705260711621e-08,0.0013661427761316898,137.0,75.0,15.470000000000004,3.0
9.63986373880332e-08,5.963159094342897e-15,6.185937121019052e-08,0.001358902569545503,137.0,74.0,16.088800000000003,3.0
1.003700168104606e-07,5.6824777674420984e-15,5.6615291578290024e-08,0.0013515019353047915,137.0,73.0,16.707600000000003,3.0
1.03940712144823e-07,5.404388240533223e-15,5.1994912570958376e-08,0.0013439661753985024,137.0,72.0,17.326400000000003,3.0
1.071107233911304e-07,5.128824841161956e-15,4.788339279936805e-08,0.0013363205918155796,137.0,71.0,17.945200000000003,3.0
1.0988005054934103e-07,4.855716599521416e-15,4.419106630589857e-08,0.0013285904865449718,137.0,70.0,18.564000000000004,3.0
1.1224869361950337e-07,4.584987248452151e-15,4.084668694670227e-08,0.0013208011615756232,137.0,69.0,19.182800000000004,3.0
1.1421665260159232e-07,4.316555223442137e-15,3.779269594337559e-08,0.0013129779188964803,137.0,68.0,19.801600000000004,3.0
1.1578392749560458e-07,4.050333662626793e-15,3.498182995028004e-08,0.001305146060496489,137.0,67.0,20.4204,3.0
1.1695051830156685e-07,3.7862304067889605e-15,3.2374635544802324e-08,0.0012973308883645945,137.0,66.0,21.039200000000005,3.0
1.1771642501944237e-07,3.5241479993589202e-15,2.993760640264825e-08,0.001289557704489744,137.0,65.0,21.658,3.0
1.1808164764925957e-07,3.2639836864143794e-15,2.7641752561832974e-08,0.0012818518108608829,137.0,64.0,22.2768,3.0
1.180461861909984e-07,3.0056294166804792e-15,2.5461469901428066e-08,0.0012742385094669574,137.0,63.0,22.895600000000005,3.0
1.1761004064468054e-07,2.7489718415297936e-15,2.337361526670069e-08,0.001266743102296913,137.0,62.0,23.514400000000002,3.0
1.1677321101028098e-07,2.4938923149823283e-15,2.1356716094436765e-08,0.0012593908913396963,137.0,61.0,24.133200000000002,3.0
1.155356972878214e-07,2.2402668937055205e-15,1.9390257265030302e-08,0.0012522071785842526,137.0,60.0,24.752000000000002,3.0
1.1389749947728677e-07,1.987966337014241e-15,1.7453994566497726e-08,0.0012452172660195287,137.0,59.0,25.370800000000006,3.0
1.1185861757869551e-07,1.7368561068707898e-15,1.5527244520511486e-08,0.0012384464556344699,137.0,58.0,25.9896,3.0
1.0941905159201749e-07,1.4867963678849043e-15,1.3588094086472335e-08,0.0012319200494180225,137.0,57.0,26.608400000000003,3.0
1.0657880151728449e-07,1.2376419873137495e-15,1.1612459229174519e-08,0.001225663349359132,137.0,56.0,27.2272,3.0
3.3081987610980895e-07,3.9613420712625006e-14,1.1974317014578694e-07,0.0034922859654395156,257.0,99.0,0.6188000000000001,3.0
3.3816441981529234e-07,3.8366329848200774e-14,1.1345466169727945e-07,0.003452706326154962,257.0,98.0,1.2376000000000003,3.0
3.449564922758982e-07,3.714569353639357e-14,1.0768225665596178e-07,0.003413183771142205,257.0,97.0,1.8564000000000005,3.0
3.511960934916633e-07,3.5951006476654e-14,1.0236733022631816e-07,0.0033737507983196907,257.0,96.0,2.4752000000000005,3.0
3.5688322346257263e-07,3.4781758978894856e-14,9.745977589373159e-08,0.003334439905605866,257.0,95.0,3.0940000000000003,3.0
3.620178821886295e-07,3.363743696349108e-14,9.2916506665724e-08,0.003295283590919179,257.0,94.0,3.712800000000001,3.0
3.666000696698021e-07,3.25175219612798e-14,8.870026126991312e-08,0.0032563143521780772,257.0,93.0,4.331600000000001,3.0
3.7062978590616574e-07,3.142149111356033e-14,8.477864518291973e-08,0.0032175646873010056,257.0,92.0,4.950400000000001,3.0
3.741070308976519e-07,3.034881717209412e-14,8.112335418896989e-08,0.003179067094206412,257.0,91.0,5.5692,3.0
3.770318046442722e-07,2.929896849910485e-14,7.770954104720236e-08,0.0031408540708127448,257.0,90.0,6.188000000000001,3.0
3.7940410714604674e-07,2.8271409067278328e-14,7.451529526114384e-08,0.00310295811503845,257.0,89.0,6.8068,3.0
3.8122393840298547e-07,2.7265598459762566e-14,7.152121289650115e-08,0.0030654117248019737,257.0,88.0,7.425600000000002,3.0
3.824912984150434e-07,2.628099187016775e-14,6.871003857883872e-08,0.0030282473980217644,257.0,87.0,8.044400000000001,3.0
3.8320618718223886e-07,2.5317040102566233e-14,6.606636570438873e-08,0.00299149763261627,257.0,86.0,8.663200000000002,3.0
3.833686047046086e-07,2.437318957149255e-14,6.357638385718223e-08,0.002955194926503936,257.0,85.0,9.282000000000002,3.0
3.829785509820891e-07,2.34488823019434e-14,6.122766468725827e-08,0.0029193717776032106,257.0,84.0,9.900800000000002,3.0
3.820360260147489e-07,2.2543555929377674e-14,5.9008979243510814e-08,0.002884060683832539,257.0,83.0,10.519600000000002,3.0
3.805410298025262e-07,2.165664369971643e-14,5.691014109820088e-08,0.002849294143110371,257.0,82.0,11.1384,3.0
3.7849356234546604e-07,2.07875744693429e-14,5.492187064034991e-08,0.002815104653355151,257.0,81.0,11.757200000000001,3.0
3.758936236435384e-07,1.9935772705102496e-14,5.3035676721155767e-08,0.002781524712485328,257.0,80.0,12.376000000000001,3.0
3.727412136967667e-07,1.91006584843028e-14,5.124375245459605e-08,0.002748586818419348,257.0,79.0,12.9948,3.0
3.690363325051224e-07,1.8281647494713583e-14,4.953888244719055e-08,0.002716323469075659,257.0,78.0,13.6136,3.0
3.6477898006865246e-07,1.7478151034566774e-14,4.791435907649431e-08,0.0026847671623727067,257.0,77.0,14.2324,3.0
3.5996915638730166e-07,1.668957601255649e-14,4.636390567473974e-08,0.002653950396228939,257.0,76.0,14.851200000000004,3.0
3.5460686146109506e-07,1.591532494783903e-14,4.4881604609292495e-08,0.002623905668562804,257.0,75.0,15.470000000000004,3.0
3.486920952900426e-07,1.5154795970032854e-14,4.346182828557404e-08,0.0025946654772927478,257.0,74.0,16.088800000000003,3.0
3.4222485787414445e-07,1.440738281921859e-14,4.209917102081756e-08,0.002566262320337216,257.0,73.0,16.707600000000003,3.0
3.352051492133638e-07,1.3672474845939054e-14,4.0788379528252084e-08,0.002538728695614659,257.0,72.0,17.326400000000003,3.0
3.276329693077657e-07,1.2949457011199253e-14,3.9524279374445476e-08,0.0025120971010435204,257.0,71.0,17.945200000000003,3.0
3.1950831815727344e-07,1.2237709886466344e-14,3.8301694168858866e-08,0.00248640003454225,257.0,70.0,18.564000000000004,3.0
3.108311957619488e-07,1.1536609653669679e-14,3.711535332027945e-08,0.002461669994029293,257.0,69.0,19.182800000000004,3.0
3.0160160212175494e-07,1.0845528105200772e-14,3.5959782802554515e-08,0.0024379394774230985,257.0,68.0,19.801600000000004,3.0
2.918195372367203e-07,1.0163832643913319e-14,3.482917127535757e-08,0.0024152409826421117,257.0,67.0,20.4204,3.0
2.814850011068299e-07,9.490886283123188e-15,3.371720072403141e-08,0.00239360700760478,257.0,66.0,21.039200000000005,3.0
2.7059799373207705e-07,8.826047646608429e-15,3.261682588580914e-08,0.0023730700502295507,257.0,65.0,21.658,3.0
2.5915851511246836e-07,8.168670968609263e-15,3.1519979056309464e-08,0.0023536626084348714,257.0,64.0,22.2768,3.0
2.4716656524800224e-07,7.518106093828089e-15,3.041716458002547e-08,0.002335417180139189,257.0,63.0,22.895600000000005,3.0
2.346221441386953e-07,6.8736984774294825e-15,2.9296887140227232e-08,0.0023183662632609496,257.0,62.0,23.514400000000002,3.0
2.2152525178451088e-07,6.234789185040188e-15,2.8144823828504626e-08,0.002302542355718602,257.0,61.0,24.133200000000002,3.0
2.0787588818549907e-07,5.600714892749133e-15,2.6942590319812887e-08,0.002287977955430591,257.0,60.0,24.752000000000002,3.0
1.9367405334159303e-07,4.970807887107416e-15,2.566584321101672e-08,0.0022747055603153667,257.0,59.0,25.370800000000006,3.0
1.789197472528713e-07,4.344396065128318e-15,2.4281255321629117e-08,0.0022627576682913734,257.0,58.0,25.9896,3.0
1.6361296991927037e-07,3.720802934287287e-15,2.274149131406391e-08,0.00225216677727706,257.0,57.0,26.608400000000003,3.0
1.4775372134082034e-07,3.0993476125219514e-15,2.0976443668533755e-08,0.0022429653851908727,257.0,56.0,27.2272,3.0
1.6848488640924492e-06,9.018449116494233e-14,5.352675429052242e-08,0.008198339073322448,377.0,99.0,0.6188000000000001,3.0
1.6697436773754836e-06,8.734292206090103e-14,5.230917969288995e-08,0.008063229023648219,377.0,98.0,1.2376000000000003,3.0
1.653815900593826e-06,8.455915335863109e-14,5.112972570179603e-08,0.007929728264253862,377.0,97.0,1.8564000000000005,3.0
1.6370655337476976e-06,8.183223178339974e-14,4.998714473944304e-08,0.007797890357138065,377.0,96.0,2.4752000000000005,3.0
1.6194925768369444e-06,7.91611912113243e-14,4.888024332037089e-08,0.007667768864299525,377.0,95.0,3.0940000000000003,3.0
1.6010970298616198e-06,7.654505266937219e-14,4.780787874922724e-08,0.007539417347736935,377.0,94.0,3.712800000000001,3.0
1.5818788928216704e-06,7.398282433536093e-14,4.6768955999782226e-08,0.007412889369448994,377.0,93.0,4.331600000000001,3.0
1.5618381657172701e-06,7.147350153795807e-14,4.5762424754893894e-08,0.0072882384914343835,377.0,92.0,4.950400000000001,3.0
1.5409748485481713e-06,6.90160667566813e-14,4.478727658774233e-08,0.00716551827569181,377.0,91.0,5.5692,3.0
1.5192889413145281e-06,6.660948962189828e-14,4.38425422647163e-08,0.007044782284219962,377.0,90.0,6.188000000000001,3.0
1.4967804440163302e-06,6.425272691482694e-14,4.292728915031571e-08,0.006926084079017533,377.0,89.0,6.8068,3.0
1.4734493566535406e-06,6.194472256753508e-14,4.20406186936905e-08,0.0068094772220832185,377.0,88.0,7.425600000000002,3.0
1.44929567922621e-06,5.968440766294074e-14,4.118166397543302e-08,0.006695015275415708,377.0,87.0,8.044400000000001,3.0
1.424319411734208e-06,5.747070043481193e-14,4.034958729154534e-08,0.006582751801013704,377.0,86.0,8.663200000000002,3.0
1.3985205541777046e-06,5.530250626776682e-14,3.954357774904733e-08,0.0064727403608758945,377.0,85.0,9.282000000000002,3.0
1.3718991065565933e-06,5.3178717697273597e-14,3.8762848844438603e-08,0.0063650345170009745,377.0,84.0,9.900800000000002,3.0
1.3444550688709138e-06,5.1098214409650556e-14,3.8006635991609094e-08,0.006259687831387639,377.0,83.0,10.519600000000002,3.0
1.31618844112066e-06,4.905986324206609e-14,3.7274193959866714e-08,0.00615675386603458,377.0,82.0,11.1384,3.0
1.2870992233058278e-06,4.706251818253863e-14,3.656479417465712e-08,0.006056286182940494,377.0,81.0,11.757200000000001,3.0
1.257187415426421e-06,4.5105020369936716e-14,3.58777218229135e-08,0.00595833834410407,377.0,80.0,12.376000000000001,3.0
1.2264530174824329e-06,4.318619809397895e-14,3.521227269074539e-08,0.005862963911524008,377.0,79.0,12.9948,3.0
1.1948960294738466e-06,4.1304866795234023e-14,3.4567749642135775e-08,0.005770216447198999,377.0,78.0,13.6136,3.0
1.1625164514007226e-06,3.945982906512071e-14,3.3943458621661086e-08,0.005680149513127736,377.0,77.0,14.2324,3.0
1.1293142832630073e-06,3.764987464590788e-14,3.3338704029425226e-08,0.005592816671308913,377.0,76.0,14.851200000000004,3.0
1.0952895250606704e-06,3.587378043071442e-14,3.275278326863146e-08,0.00550827148374123,377.0,75.0,15.470000000000004,3.0
1.0604421767938155e-06,3.4130310463509345e-14,3.218498020014663e-08,0.005426567512423371,377.0,74.0,16.088800000000003,3.0
1.0247722384623659e-06,3.241821593911179e-14,3.1634557145843615e-08,0.0053477583193540365,377.0,73.0,16.707600000000003,3.0
9.882797100663085e-07,3.073623520319089e-14,3.1100744951172425e-08,0.00527189746653192,377.0,72.0,17.326400000000003,3.0
9.509645916057396e-07,2.908309375226589e-14,3.058273042864612e-08,0.005199038515955711,377.0,71.0,17.945200000000003,3.0
9.128268830805227e-07,2.745750423370612e-14,3.0079640228216226e-08,0.005129235029624108,377.0,70.0,18.564000000000004,3.0
8.738665844907645e-07,2.5858166445730985e-14,2.9590519771161098e-08,0.005062540569535804,377.0,69.0,19.182800000000004,3.0
8.340836958363982e-07,2.4283767337409973e-14,2.911430526532331e-08,0.004999008697689493,377.0,68.0,19.801600000000004,3.0
